{
  "AcquisitionMatrixPE": 104,
  "AcquisitionNumber": 1,
  "AcquisitionTime": "17:29:14.847500",
  "BandwidthPerPixelPhaseEncode": 17.17,
  "BaseResolution": 104,
  "BodyPartExamined": "BRAIN",
  "CoilCombinationMethod": "Sum of Squares",
  "ConsistencyInfo": "N4_VE11C_LATEST_20160120",
  "ConversionSoftware": "dcm2niix",
  "ConversionSoftwareVersion": "v1.0.20211006",
  "DerivedVendorReportedEchoSpacing": 0.000560011,
  "DeviceSerialNumber": "167006",
  "DwellTime": 2.1e-06,
  "EchoTime": 0.037,
  "EchoTime1": 0.037,
  "EchoTime2": 0.001,
  "EchoTrainLength": 104,
  "EffectiveEchoSpacing": 0.000560011,
  "FlipAngle": 52,
  "HeudiconvVersion": "0.11.3.post9+gc939bf8",
  "ImageComments": "Unaliased MB4/PE3/LB",
  "ImageOrientationPatientDICOM": [0.999942, -0.00923024, 0.00551796, 0.0106463, 0.922074, -0.386867],
  "ImageOrientationText": "Tra>Cor(-22.8)>Sag(0.1)",
  "ImageType": [
    "ORIGINAL",
    "PRIMARY",
    "P",
    "MB",
    "ND",
    "MOSAIC",
    "PHASE"
],
  "ImagingFrequency": 123.259,
  "InPlanePhaseEncodingDirectionDICOM": "COL",
  "InstitutionAddress": "Chemin Queen-Mary 4565,Montreal,District,CA,H3W 1W5",
  "InstitutionName": "IUGM",
  "InstitutionalDepartmentName": "Department",
  "MRAcquisitionType": "2D",
  "MagneticFieldStrength": 3,
  "Manufacturer": "Siemens",
  "ManufacturersModelName": "Prisma_fit",
  "MatrixCoilMode": "SENSE",
  "Modality": "MR",
  "MultibandAccelerationFactor": 4,
  "PartialFourier": 1,
  "PatientPosition": "HFS",
  "PercentPhaseFOV": 100,
  "PercentSampling": 100,
  "PhaseEncodingDirection": "j",
  "PhaseEncodingSteps": 104,
  "PhaseResolution": 1,
  "PixelBandwidth": 2290,
  "ProcedureStepDescription": "games^mario",
  "ProtocolName": "func_task-mario_run-01",
  "PulseSequenceDetails": "%CustomerSeq%\\cmrr_mbep2d_bold",
  "ReceiveCoilActiveElements": "HC1-7;NC1,2",
  "ReceiveCoilName": "HeadNeck_64",
  "ReconMatrixPE": 104,
  "RepetitionTime": 1.49,
  "SAR": 0.054836,
  "ScanOptions": "FS",
  "ScanningSequence": "EP",
  "SequenceName": "epfid2d1_104",
  "SequenceVariant": "SK\\SS",
  "SeriesDescription": "func_task-mario_run-01",
  "SeriesNumber": 11,
  "ShimSetting": [617, -7241, -8836, 395, 11, -318, 2, 23],
  "SliceThickness": 2,
  "SliceTiming": [0, 0.7825, 0.0975, 0.8825, 0.195, 0.98, 0.2925, 1.0775, 0.3925, 1.175, 0.49, 1.2725, 0.5875, 1.3725, 0.685, 0, 0.7825, 0.0975, 0.8825, 0.195, 0.98, 0.2925, 1.0775, 0.3925, 1.175, 0.49, 1.2725, 0.5875, 1.3725, 0.685, 0, 0.7825, 0.0975, 0.8825, 0.195, 0.98, 0.2925, 1.0775, 0.3925, 1.175, 0.49, 1.2725, 0.5875, 1.3725, 0.685, 0, 0.7825, 0.0975, 0.8825, 0.195, 0.98, 0.2925, 1.0775, 0.3925, 1.175, 0.49, 1.2725, 0.5875, 1.3725, 0.685],
  "SoftwareVersions": "syngo MR E11",
  "SpacingBetweenSlices": 2,
  "StationName": "MRC35049",
  "TaskName": "mario",
  "TotalReadoutTime": 0.0576811,
  "TxRefAmp": 264.393,
  "WipMemBlock": "1044c753-383c-4497-9c7a-464f9ec0ab73||Sequence: R017 ve11c/master r/75a17815+; Jun 28 2022 16:32:11 by eja",
  "dcmmeta_affine": [
    [-1.9998843669891357, 0.02129260264337063, 0.00303418911062181, 102.41984558105469],
    [0.018460489809513092, 1.8441483974456787, -0.7738061547279358, -61.12049865722656],
    [0.011035921052098274, 0.773733377456665, 1.84423828125, -66.43930053710938],
    [0.0, 0.0, 0.0, 1.0]
],
  "dcmmeta_reorient_transform": [
    [0.0, -1.0, 0.0, 103.0],
    [1.0, 0.0, 0.0, 0.0],
    [0.0, 0.0, 1.0, 0.0],
    [0.0, 0.0, 0.0, 1.0]
],
  "dcmmeta_shape": [104, 104, 60, 458],
  "dcmmeta_slice_dim": 2,
  "dcmmeta_version": 0.6,
  "global": {
    "const": {
      "AcquisitionMatrix": [104, 0, 0, 104],
      "AngioFlag": "N",
      "BitsAllocated": 16,
      "BitsStored": 16,
      "BodyPartExamined": "BRAIN",
      "Columns": 832,
      "EchoNumbers": 1,
      "EchoTime": 37.0,
      "EchoTrainLength": 104,
      "FlipAngle": 52.0,
      "HighBit": 15,
      "ImageOrientationPatient": [0.99994217567342, -0.0092302449765, 0.00551796041862, 0.01064630141312, 0.92207419156209, -0.3868666973537],
      "ImagePositionPatient": [-840.32139820478, -793.37717765833, 290.8771198331],
      "ImageType": [
        "ORIGINAL",
        "PRIMARY",
        "P",
        "MB",
        "ND",
        "MOSAIC"
],
      "ImagedNucleus": "1H",
      "ImagingFrequency": 123.258781,
      "InPlanePhaseEncodingDirection": "COL",
      "LargestImagePixelValue": 4095,
      "MRAcquisitionType": "2D",
      "MagneticFieldStrength": 3.0,
      "Manufacturer": "SIEMENS",
      "ManufacturerModelName": "Prisma_fit",
      "Modality": "MR",
      "NumberOfAverages": 1.0,
      "NumberOfPhaseEncodingSteps": 104,
      "PercentPhaseFieldOfView": 100.0,
      "PercentSampling": 100.0,
      "PerformedProcedureStepStartTime": "170427.378000",
      "PhotometricInterpretation": "MONOCHROME2",
      "PixelBandwidth": 2290.0,
      "PixelRepresentation": 0,
      "PixelSpacing": [2.0, 2.0],
      "ProtocolName": "func_task-mario_run-01",
      "RepetitionTime": 1490.0,
      "RescaleIntercept": -4096.0,
      "RescaleSlope": 2.0,
      "RescaleType": "US",
      "Rows": 832,
      "SAR": 0.05483600573583,
      "SamplesPerPixel": 1,
      "ScanOptions": "FS",
      "ScanningSequence": "EP",
      "SequenceName": "epfid2d1_104",
      "SequenceVariant": [
        "SK",
        "SS"
],
      "SeriesDescription": "func_task-mario_run-01",
      "SeriesNumber": 11,
      "SeriesTime": "173006.019000",
      "SliceLocation": -37.461861106055,
      "SliceThickness": 2.0,
      "SmallestImagePixelValue": 0,
      "SoftwareVersions": "syngo MR E11",
      "SpacingBetweenSlices": 2.0000000011334,
      "SpecificCharacterSet": "ISO_IR 100",
      "StudyID": "1",
      "StudyTime": "170427.321000",
      "TransmitCoilName": "Body",
      "VariableFlipAngleFlag": "N",
      "WindowCenterWidthExplanation": "Algo1",
      "dBdt": 0.0},
    "slices": {}
  },
  "time": {
    "samples": {
      "AcquisitionNumber": [1, 2, 3, 4, 5, 6, 7, 8, 9, 10, 11, 12, 13, 14, 15, 16, 17, 18, 19, 20, 21, 22, 23, 24, 25, 26, 27, 28, 29, 30, 31, 32, 33, 34, 35, 36, 37, 38, 39, 40, 41, 42, 43, 44, 45, 46, 47, 48, 49, 50, 51, 52, 53, 54, 55, 56, 57, 58, 59, 60, 61, 62, 63, 64, 65, 66, 67, 68, 69, 70, 71, 72, 73, 74, 75, 76, 77, 78, 79, 80, 81, 82, 83, 84, 85, 86, 87, 88, 89, 90, 91, 92, 93, 94, 95, 96, 97, 98, 99, 100, 101, 102, 103, 104, 105, 106, 107, 108, 109, 110, 111, 112, 113, 114, 115, 116, 117, 118, 119, 120, 121, 122, 123, 124, 125, 126, 127, 128, 129, 130, 131, 132, 133, 134, 135, 136, 137, 138, 139, 140, 141, 142, 143, 144, 145, 146, 147, 148, 149, 150, 151, 152, 153, 154, 155, 156, 157, 158, 159, 160, 161, 162, 163, 164, 165, 166, 167, 168, 169, 170, 171, 172, 173, 174, 175, 176, 177, 178, 179, 180, 181, 182, 183, 184, 185, 186, 187, 188, 189, 190, 191, 192, 193, 194, 195, 196, 197, 198, 199, 200, 201, 202, 203, 204, 205, 206, 207, 208, 209, 210, 211, 212, 213, 214, 215, 216, 217, 218, 219, 220, 221, 222, 223, 224, 225, 226, 227, 228, 229, 230, 231, 232, 233, 234, 235, 236, 237, 238, 239, 240, 241, 242, 243, 244, 245, 246, 247, 248, 249, 250, 251, 252, 253, 254, 255, 256, 257, 258, 259, 260, 261, 262, 263, 264, 265, 266, 267, 268, 269, 270, 271, 272, 273, 274, 275, 276, 277, 278, 279, 280, 281, 282, 283, 284, 285, 286, 287, 288, 289, 290, 291, 292, 293, 294, 295, 296, 297, 298, 299, 300, 301, 302, 303, 304, 305, 306, 307, 308, 309, 310, 311, 312, 313, 314, 315, 316, 317, 318, 319, 320, 321, 322, 323, 324, 325, 326, 327, 328, 329, 330, 331, 332, 333, 334, 335, 336, 337, 338, 339, 340, 341, 342, 343, 344, 345, 346, 347, 348, 349, 350, 351, 352, 353, 354, 355, 356, 357, 358, 359, 360, 361, 362, 363, 364, 365, 366, 367, 368, 369, 370, 371, 372, 373, 374, 375, 376, 377, 378, 379, 380, 381, 382, 383, 384, 385, 386, 387, 388, 389, 390, 391, 392, 393, 394, 395, 396, 397, 398, 399, 400, 401, 402, 403, 404, 405, 406, 407, 408, 409, 410, 411, 412, 413, 414, 415, 416, 417, 418, 419, 420, 421, 422, 423, 424, 425, 426, 427, 428, 429, 430, 431, 432, 433, 434, 435, 436, 437, 438, 439, 440, 441, 442, 443, 444, 445, 446, 447, 448, 449, 450, 451, 452, 453, 454, 455, 456, 457, 458],
      "AcquisitionTime": ["172914.847500", "172916.337500", "172917.827500", "172919.317500", "172920.807500", "172922.297500", "172923.787500", "172925.277500", "172926.767500", "172928.257500", "172929.747500", "172931.237500", "172932.727500", "172934.217500", "172935.707500", "172937.197500", "172938.687500", "172940.177500", "172941.667500", "172943.157500", "172944.647500", "172946.137500", "172947.627500", "172949.117500", "172950.607500", "172952.097500", "172953.587500", "172955.077500", "172956.567500", "172958.057500", "172959.547500", "173001.037500", "173002.527500", "173004.017500", "173005.507500", "173006.997500", "173008.487500", "173009.977500", "173011.467500", "173012.957500", "173014.447500", "173015.937500", "173017.427500", "173018.917500", "173020.407500", "173021.897500", "173023.387500", "173024.877500", "173026.367500", "173027.857500", "173029.347500", "173030.837500", "173032.327500", "173033.817500", "173035.307500", "173036.797500", "173038.287500", "173039.777500", "173041.267500", "173042.757500", "173044.247500", "173045.737500", "173047.227500", "173048.717500", "173050.207500", "173051.697500", "173053.187500", "173054.677500", "173056.167500", "173057.657500", "173059.147500", "173100.637500", "173102.127500", "173103.617500", "173105.107500", "173106.597500", "173108.087500", "173109.577500", "173111.067500", "173112.557500", "173114.047500", "173115.537500", "173117.027500", "173118.517500", "173120.007500", "173121.497500", "173122.987500", "173124.477500", "173125.967500", "173127.457500", "173128.947500", "173130.437500", "173131.927500", "173133.417500", "173134.907500", "173136.397500", "173137.887500", "173139.377500", "173140.867500", "173142.357500", "173143.847500", "173145.337500", "173146.827500", "173148.317500", "173149.807500", "173151.297500", "173152.787500", "173154.277500", "173155.767500", "173157.257500", "173158.747500", "173200.237500", "173201.727500", "173203.217500", "173204.707500", "173206.197500", "173207.687500", "173209.177500", "173210.667500", "173212.157500", "173213.647500", "173215.137500", "173216.627500", "173218.117500", "173219.607500", "173221.097500", "173222.587500", "173224.077500", "173225.567500", "173227.057500", "173228.547500", "173230.037500", "173231.527500", "173233.017500", "173234.507500", "173235.997500", "173237.487500", "173238.977500", "173240.467500", "173241.957500", "173243.447500", "173244.937500", "173246.427500", "173247.917500", "173249.407500", "173250.897500", "173252.387500", "173253.877500", "173255.367500", "173256.857500", "173258.347500", "173259.837500", "173301.327500", "173302.817500", "173304.307500", "173305.797500", "173307.287500", "173308.777500", "173310.267500", "173311.757500", "173313.247500", "173314.737500", "173316.227500", "173317.717500", "173319.207500", "173320.697500", "173322.187500", "173323.677500", "173325.167500", "173326.657500", "173328.147500", "173329.637500", "173331.127500", "173332.617500", "173334.107500", "173335.597500", "173337.087500", "173338.577500", "173340.067500", "173341.557500", "173343.047500", "173344.537500", "173346.027500", "173347.517500", "173349.007500", "173350.497500", "173351.987500", "173353.477500", "173354.967500", "173356.457500", "173357.947500", "173359.437500", "173400.927500", "173402.417500", "173403.907500", "173405.397500", "173406.887500", "173408.377500", "173409.867500", "173411.357500", "173412.847500", "173414.337500", "173415.827500", "173417.317500", "173418.807500", "173420.297500", "173421.787500", "173423.277500", "173424.767500", "173426.257500", "173427.747500", "173429.237500", "173430.727500", "173432.217500", "173433.707500", "173435.197500", "173436.687500", "173438.177500", "173439.667500", "173441.157500", "173442.647500", "173444.137500", "173445.627500", "173447.117500", "173448.607500", "173450.097500", "173451.587500", "173453.077500", "173454.567500", "173456.057500", "173457.547500", "173459.037500", "173500.527500", "173502.017500", "173503.507500", "173504.997500", "173506.487500", "173507.977500", "173509.467500", "173510.957500", "173512.447500", "173513.937500", "173515.427500", "173516.917500", "173518.407500", "173519.897500", "173521.387500", "173522.877500", "173524.367500", "173525.857500", "173527.347500", "173528.837500", "173530.327500", "173531.817500", "173533.307500", "173534.797500", "173536.287500", "173537.777500", "173539.267500", "173540.757500", "173542.247500", "173543.737500", "173545.227500", "173546.717500", "173548.207500", "173549.697500", "173551.187500", "173552.677500", "173554.167500", "173555.657500", "173557.147500", "173558.637500", "173600.127500", "173601.617500", "173603.107500", "173604.597500", "173606.087500", "173607.577500", "173609.067500", "173610.557500", "173612.047500", "173613.537500", "173615.027500", "173616.517500", "173618.007500", "173619.497500", "173620.987500", "173622.477500", "173623.967500", "173625.457500", "173626.947500", "173628.437500", "173629.927500", "173631.417500", "173632.907500", "173634.397500", "173635.887500", "173637.377500", "173638.867500", "173640.357500", "173641.847500", "173643.337500", "173644.827500", "173646.317500", "173647.807500", "173649.297500", "173650.787500", "173652.277500", "173653.767500", "173655.257500", "173656.747500", "173658.237500", "173659.727500", "173701.217500", "173702.707500", "173704.197500", "173705.687500", "173707.177500", "173708.667500", "173710.157500", "173711.647500", "173713.137500", "173714.627500", "173716.117500", "173717.607500", "173719.097500", "173720.587500", "173722.077500", "173723.567500", "173725.057500", "173726.547500", "173728.037500", "173729.527500", "173731.017500", "173732.507500", "173733.997500", "173735.487500", "173736.977500", "173738.467500", "173739.957500", "173741.447500", "173742.937500", "173744.427500", "173745.917500", "173747.407500", "173748.897500", "173750.387500", "173751.877500", "173753.367500", "173754.857500", "173756.347500", "173757.837500", "173759.327500", "173800.817500", "173802.307500", "173803.797500", "173805.287500", "173806.777500", "173808.267500", "173809.757500", "173811.247500", "173812.737500", "173814.227500", "173815.717500", "173817.207500", "173818.697500", "173820.187500", "173821.677500", "173823.167500", "173824.657500", "173826.147500", "173827.637500", "173829.127500", "173830.617500", "173832.107500", "173833.597500", "173835.087500", "173836.577500", "173838.067500", "173839.557500", "173841.047500", "173842.537500", "173844.027500", "173845.517500", "173847.007500", "173848.497500", "173849.987500", "173851.477500", "173852.967500", "173854.457500", "173855.947500", "173857.437500", "173858.927500", "173900.417500", "173901.907500", "173903.397500", "173904.887500", "173906.377500", "173907.867500", "173909.357500", "173910.847500", "173912.337500", "173913.827500", "173915.317500", "173916.807500", "173918.297500", "173919.787500", "173921.277500", "173922.767500", "173924.257500", "173925.747500", "173927.237500", "173928.727500", "173930.217500", "173931.707500", "173933.197500", "173934.687500", "173936.177500", "173937.667500", "173939.157500", "173940.647500", "173942.137500", "173943.627500", "173945.117500", "173946.607500", "173948.097500", "173949.587500", "173951.077500", "173952.567500", "173954.057500", "173955.547500", "173957.037500", "173958.527500", "174000.017500", "174001.507500", "174002.997500", "174004.487500", "174005.977500", "174007.467500", "174008.957500", "174010.447500", "174011.937500", "174013.427500", "174014.917500", "174016.407500", "174017.897500", "174019.387500", "174020.877500", "174022.367500", "174023.857500", "174025.347500", "174026.837500", "174028.327500", "174029.817500", "174031.307500", "174032.797500", "174034.287500", "174035.777500"],
      "ContentTime": ["173006.021000", "173006.024000", "173026.076000", "173026.079000", "173026.081000", "173026.084000", "173026.087000", "173026.089000", "173026.092000", "173026.094000", "173026.097000", "173026.099000", "173026.102000", "173026.104000", "173026.107000", "173026.109000", "173026.112000", "173026.114000", "173026.117000", "173026.120000", "173026.122000", "173026.125000", "173046.063000", "173046.066000", "173046.068000", "173046.071000", "173046.073000", "173046.076000", "173046.079000", "173046.081000", "173046.084000", "173046.086000", "173046.089000", "173046.091000", "173046.094000", "173046.096000", "173046.099000", "173046.101000", "173046.104000", "173046.106000", "173046.109000", "173046.111000", "173106.080000", "173106.082000", "173106.085000", "173106.087000", "173106.090000", "173106.093000", "173106.095000", "173106.098000", "173106.100000", "173106.103000", "173106.105000", "173106.108000", "173106.110000", "173106.116000", "173106.119000", "173106.122000", "173106.124000", "173106.127000", "173106.129000", "173106.132000", "173106.134000", "173126.056000", "173126.058000", "173126.061000", "173126.063000", "173126.066000", "173126.069000", "173126.071000", "173126.074000", "173126.076000", "173126.079000", "173126.081000", "173126.084000", "173126.086000", "173126.089000", "173126.091000", "173126.094000", "173126.096000", "173126.099000", "173126.101000", "173126.104000", "173206.116000", "173206.119000", "173206.122000", "173206.124000", "173206.127000", "173206.129000", "173206.132000", "173206.134000", "173206.137000", "173206.139000", "173206.142000", "173206.144000", "173206.147000", "173206.150000", "173206.152000", "173206.155000", "173206.157000", "173206.160000", "173206.162000", "173206.165000", "173206.167000", "173206.170000", "173206.172000", "173206.175000", "173206.177000", "173206.180000", "173206.182000", "173206.185000", "173206.188000", "173206.190000", "173206.193000", "173246.106000", "173246.109000", "173246.112000", "173246.114000", "173246.117000", "173246.119000", "173246.122000", "173246.124000", "173246.127000", "173246.129000", "173246.132000", "173246.142000", "173246.145000", "173246.147000", "173246.150000", "173246.152000", "173246.155000", "173246.157000", "173246.160000", "173246.162000", "173246.165000", "173246.168000", "173246.170000", "173246.173000", "173246.175000", "173246.178000", "173246.180000", "173326.103000", "173326.105000", "173326.108000", "173326.111000", "173326.113000", "173326.116000", "173326.118000", "173326.121000", "173326.123000", "173326.126000", "173326.128000", "173326.131000", "173326.133000", "173326.136000", "173326.138000", "173326.141000", "173326.144000", "173326.146000", "173326.149000", "173326.151000", "173326.154000", "173326.156000", "173326.159000", "173326.161000", "173326.164000", "173326.167000", "173326.169000", "173406.105000", "173406.108000", "173406.111000", "173406.113000", "173406.116000", "173406.118000", "173406.121000", "173406.123000", "173406.126000", "173406.128000", "173406.131000", "173406.134000", "173406.136000", "173406.139000", "173406.141000", "173406.144000", "173406.146000", "173406.149000", "173406.151000", "173406.154000", "173406.157000", "173406.159000", "173406.162000", "173406.164000", "173406.167000", "173406.170000", "173406.172000", "173446.096000", "173446.099000", "173446.101000", "173446.104000", "173446.106000", "173446.109000", "173446.111000", "173446.114000", "173446.116000", "173446.119000", "173446.122000", "173446.124000", "173446.127000", "173446.129000", "173446.132000", "173446.134000", "173446.137000", "173446.139000", "173446.142000", "173446.144000", "173446.147000", "173446.150000", "173446.152000", "173446.155000", "173446.157000", "173446.160000", "173446.162000", "173526.098000", "173526.108000", "173526.110000", "173526.113000", "173526.115000", "173526.118000", "173526.120000", "173526.123000", "173526.126000", "173526.128000", "173526.131000", "173526.133000", "173526.136000", "173526.139000", "173526.142000", "173526.144000", "173526.147000", "173526.149000", "173526.152000", "173526.155000", "173526.157000", "173526.160000", "173526.163000", "173526.165000", "173526.168000", "173526.170000", "173606.596000", "173606.598000", "173606.601000", "173606.603000", "173606.606000", "173606.609000", "173606.619000", "173606.622000", "173606.624000", "173606.627000", "173606.629000", "173606.632000", "173606.634000", "173606.637000", "173606.639000", "173606.642000", "173606.644000", "173606.647000", "173606.650000", "173606.652000", "173606.655000", "173606.657000", "173606.660000", "173606.662000", "173606.665000", "173606.668000", "173606.670000", "173646.108000", "173646.110000", "173646.113000", "173646.115000", "173646.118000", "173646.120000", "173646.123000", "173646.126000", "173646.128000", "173646.131000", "173646.133000", "173646.136000", "173646.138000", "173646.141000", "173646.143000", "173646.146000", "173646.148000", "173646.151000", "173646.153000", "173646.156000", "173646.158000", "173646.161000", "173646.164000", "173646.166000", "173646.169000", "173646.171000", "173646.174000", "173726.104000", "173726.107000", "173726.109000", "173726.112000", "173726.115000", "173726.117000", "173726.120000", "173726.122000", "173726.125000", "173726.127000", "173726.130000", "173726.132000", "173726.140000", "173726.143000", "173726.146000", "173726.148000", "173726.151000", "173726.153000", "173726.156000", "173726.158000", "173726.161000", "173726.163000", "173726.166000", "173726.169000", "173726.171000", "173726.174000", "173726.176000", "173746.028000", "173746.031000", "173746.033000", "173746.036000", "173746.039000", "173746.041000", "173746.044000", "173746.046000", "173746.049000", "173746.051000", "173746.054000", "173746.057000", "173746.059000", "173826.088000", "173826.091000", "173826.094000", "173826.096000", "173826.099000", "173826.101000", "173826.104000", "173826.107000", "173826.109000", "173826.112000", "173826.114000", "173826.117000", "173826.119000", "173826.122000", "173826.124000", "173826.127000", "173826.130000", "173826.132000", "173826.135000", "173826.137000", "173826.140000", "173826.142000", "173826.145000", "173826.147000", "173826.150000", "173826.153000", "173826.155000", "173906.098000", "173906.100000", "173906.103000", "173906.105000", "173906.108000", "173906.111000", "173906.113000", "173906.116000", "173906.118000", "173906.121000", "173906.124000", "173906.126000", "173906.129000", "173906.131000", "173906.134000", "173906.136000", "173906.139000", "173906.142000", "173906.144000", "173906.147000", "173906.149000", "173906.152000", "173906.154000", "173906.157000", "173906.160000", "173906.162000", "173906.165000", "173946.111000", "173946.114000", "173946.116000", "173946.119000", "173946.122000", "173946.124000", "173946.127000", "173946.129000", "173946.142000", "173946.144000", "173946.147000", "173946.149000", "173946.152000", "173946.155000", "173946.157000", "173946.160000", "173946.162000", "173946.165000", "173946.168000", "173946.170000", "173946.173000", "173946.175000", "173946.178000", "173946.181000", "173946.183000", "173946.186000", "173946.188000", "174026.114000", "174026.117000", "174026.119000", "174026.122000", "174026.124000", "174026.127000", "174026.130000", "174026.132000", "174026.135000", "174026.137000", "174026.140000", "174026.142000", "174026.145000", "174026.148000", "174026.150000", "174026.153000", "174026.155000", "174026.158000", "174026.161000", "174026.163000", "174026.166000", "174026.168000", "174026.171000", "174026.173000", "174026.176000", "174026.179000", "174026.181000", "174037.830000", "174037.833000", "174037.835000", "174037.838000", "174037.840000", "174037.843000", "174037.846000", "174037.848000"],
