{
  "AcquisitionMatrixPE": 104,
  "AcquisitionNumber": 1,
  "AcquisitionTime": "18:09:58.127500",
  "BandwidthPerPixelPhaseEncode": 17.17,
  "BaseResolution": 104,
  "BodyPartExamined": "BRAIN",
  "CoilCombinationMethod": "Sum of Squares",
  "ConsistencyInfo": "N4_VE11C_LATEST_20160120",
  "ConversionSoftware": "dcm2niix",
  "ConversionSoftwareVersion": "v1.0.20211006",
  "DerivedVendorReportedEchoSpacing": 0.000560011,
  "DeviceSerialNumber": "167006",
  "DwellTime": 2.1e-06,
  "EchoTime": 0.037,
  "EchoTime1": 0.037,
  "EchoTime2": 0.001,
  "EchoTrainLength": 104,
  "EffectiveEchoSpacing": 0.000560011,
  "FlipAngle": 52,
  "HeudiconvVersion": "0.11.3.post9+gc939bf8",
  "ImageComments": "Unaliased MB4/PE3/LB",
  "ImageOrientationPatientDICOM": [0.999942, -0.00923024, 0.00551796, 0.0106463, 0.922074, -0.386867],
  "ImageOrientationText": "Tra>Cor(-22.8)>Sag(0.1)",
  "ImageType": [
    "ORIGINAL",
    "PRIMARY",
    "P",
    "MB",
    "ND",
    "MOSAIC",
    "PHASE"
],
  "ImagingFrequency": 123.259,
  "InPlanePhaseEncodingDirectionDICOM": "COL",
  "InstitutionAddress": "Chemin Queen-Mary 4565,Montreal,District,CA,H3W 1W5",
  "InstitutionName": "IUGM",
  "InstitutionalDepartmentName": "Department",
  "MRAcquisitionType": "2D",
  "MagneticFieldStrength": 3,
  "Manufacturer": "Siemens",
  "ManufacturersModelName": "Prisma_fit",
  "MatrixCoilMode": "SENSE",
  "Modality": "MR",
  "MultibandAccelerationFactor": 4,
  "PartialFourier": 1,
  "PatientPosition": "HFS",
  "PercentPhaseFOV": 100,
  "PercentSampling": 100,
  "PhaseEncodingDirection": "j",
  "PhaseEncodingSteps": 104,
  "PhaseResolution": 1,
  "PixelBandwidth": 2290,
  "ProcedureStepDescription": "games^mario",
  "ProtocolName": "func_task-mario_run-04",
  "PulseSequenceDetails": "%CustomerSeq%\\cmrr_mbep2d_bold",
  "ReceiveCoilActiveElements": "HC1-7;NC1,2",
  "ReceiveCoilName": "HeadNeck_64",
  "ReconMatrixPE": 104,
  "RepetitionTime": 1.49,
  "SAR": 0.054836,
  "ScanOptions": "FS",
  "ScanningSequence": "EP",
  "SequenceName": "epfid2d1_104",
  "SequenceVariant": "SK\\SS",
  "SeriesDescription": "func_task-mario_run-04",
  "SeriesNumber": 20,
  "ShimSetting": [617, -7241, -8836, 395, 11, -318, 2, 23],
  "SliceThickness": 2,
  "SliceTiming": [0, 0.785, 0.1, 0.8825, 0.1975, 0.98, 0.295, 1.08, 0.3925, 1.1775, 0.49, 1.275, 0.59, 1.3725, 0.6875, 0, 0.785, 0.1, 0.8825, 0.1975, 0.98, 0.295, 1.08, 0.3925, 1.1775, 0.49, 1.275, 0.59, 1.3725, 0.6875, 0, 0.785, 0.1, 0.8825, 0.1975, 0.98, 0.295, 1.08, 0.3925, 1.1775, 0.49, 1.275, 0.59, 1.3725, 0.6875, 0, 0.785, 0.1, 0.8825, 0.1975, 0.98, 0.295, 1.08, 0.3925, 1.1775, 0.49, 1.275, 0.59, 1.3725, 0.6875],
  "SoftwareVersions": "syngo MR E11",
  "SpacingBetweenSlices": 2,
  "StationName": "MRC35049",
  "TaskName": "mario",
  "TotalReadoutTime": 0.0576811,
  "TxRefAmp": 264.393,
  "WipMemBlock": "26f05f52-abca-4d40-8d95-b995cf828048||Sequence: R017 ve11c/master r/75a17815+; Jun 28 2022 16:32:11 by eja",
  "dcmmeta_affine": [
    [-1.9998843669891357, 0.02129260264337063, 0.00303418911062181, 102.41984558105469],
    [0.018460489809513092, 1.8441483974456787, -0.7738061547279358, -61.12049865722656],
    [0.011035921052098274, 0.773733377456665, 1.84423828125, -66.43930053710938],
    [0.0, 0.0, 0.0, 1.0]
],
  "dcmmeta_reorient_transform": [
    [0.0, -1.0, 0.0, 103.0],
    [1.0, 0.0, 0.0, 0.0],
    [0.0, 0.0, 1.0, 0.0],
    [0.0, 0.0, 0.0, 1.0]
],
  "dcmmeta_shape": [104, 104, 60, 446],
  "dcmmeta_slice_dim": 2,
  "dcmmeta_version": 0.6,
  "global": {
    "const": {
      "AcquisitionMatrix": [104, 0, 0, 104],
      "AngioFlag": "N",
      "BitsAllocated": 16,
      "BitsStored": 16,
      "BodyPartExamined": "BRAIN",
      "Columns": 832,
      "EchoNumbers": 1,
      "EchoTime": 37.0,
      "EchoTrainLength": 104,
      "FlipAngle": 52.0,
      "HighBit": 15,
      "ImageOrientationPatient": [0.99994217567342, -0.0092302449765, 0.00551796041862, 0.01064630141312, 0.92207419156209, -0.3868666973537],
      "ImagePositionPatient": [-840.32139820478, -793.37717765833, 290.8771198331],
      "ImageType": [
        "ORIGINAL",
        "PRIMARY",
        "P",
        "MB",
        "ND",
        "MOSAIC"
],
      "ImagedNucleus": "1H",
      "ImagingFrequency": 123.258806,
      "InPlanePhaseEncodingDirection": "COL",
      "LargestImagePixelValue": 4095,
      "MRAcquisitionType": "2D",
      "MagneticFieldStrength": 3.0,
      "Manufacturer": "SIEMENS",
      "ManufacturerModelName": "Prisma_fit",
      "Modality": "MR",
      "NumberOfAverages": 1.0,
      "NumberOfPhaseEncodingSteps": 104,
      "PercentPhaseFieldOfView": 100.0,
      "PercentSampling": 100.0,
      "PerformedProcedureStepStartTime": "170427.378000",
      "PhotometricInterpretation": "MONOCHROME2",
      "PixelBandwidth": 2290.0,
      "PixelRepresentation": 0,
      "PixelSpacing": [2.0, 2.0],
      "ProtocolName": "func_task-mario_run-04",
      "RepetitionTime": 1490.0,
      "RescaleIntercept": -4096.0,
      "RescaleSlope": 2.0,
      "RescaleType": "US",
      "Rows": 832,
      "SAR": 0.05483600573583,
      "SamplesPerPixel": 1,
      "ScanOptions": "FS",
      "ScanningSequence": "EP",
      "SequenceName": "epfid2d1_104",
      "SequenceVariant": [
        "SK",
        "SS"
],
      "SeriesDescription": "func_task-mario_run-04",
      "SeriesNumber": 20,
      "SeriesTime": "181126.214000",
      "SliceLocation": -37.461861106055,
      "SliceThickness": 2.0,
      "SmallestImagePixelValue": 0,
      "SoftwareVersions": "syngo MR E11",
      "SpacingBetweenSlices": 2.0000000011334,
      "SpecificCharacterSet": "ISO_IR 100",
      "StudyID": "1",
      "StudyTime": "170427.321000",
      "TransmitCoilName": "Body",
      "VariableFlipAngleFlag": "N",
      "WindowCenterWidthExplanation": "Algo1",
      "dBdt": 0.0},
    "slices": {}
  },
  "time": {
    "samples": {
      "AcquisitionNumber": [1, 2, 3, 4, 5, 6, 7, 8, 9, 10, 11, 12, 13, 14, 15, 16, 17, 18, 19, 20, 21, 22, 23, 24, 25, 26, 27, 28, 29, 30, 31, 32, 33, 34, 35, 36, 37, 38, 39, 40, 41, 42, 43, 44, 45, 46, 47, 48, 49, 50, 51, 52, 53, 54, 55, 56, 57, 58, 59, 60, 61, 62, 63, 64, 65, 66, 67, 68, 69, 70, 71, 72, 73, 74, 75, 76, 77, 78, 79, 80, 81, 82, 83, 84, 85, 86, 87, 88, 89, 90, 91, 92, 93, 94, 95, 96, 97, 98, 99, 100, 101, 102, 103, 104, 105, 106, 107, 108, 109, 110, 111, 112, 113, 114, 115, 116, 117, 118, 119, 120, 121, 122, 123, 124, 125, 126, 127, 128, 129, 130, 131, 132, 133, 134, 135, 136, 137, 138, 139, 140, 141, 142, 143, 144, 145, 146, 147, 148, 149, 150, 151, 152, 153, 154, 155, 156, 157, 158, 159, 160, 161, 162, 163, 164, 165, 166, 167, 168, 169, 170, 171, 172, 173, 174, 175, 176, 177, 178, 179, 180, 181, 182, 183, 184, 185, 186, 187, 188, 189, 190, 191, 192, 193, 194, 195, 196, 197, 198, 199, 200, 201, 202, 203, 204, 205, 206, 207, 208, 209, 210, 211, 212, 213, 214, 215, 216, 217, 218, 219, 220, 221, 222, 223, 224, 225, 226, 227, 228, 229, 230, 231, 232, 233, 234, 235, 236, 237, 238, 239, 240, 241, 242, 243, 244, 245, 246, 247, 248, 249, 250, 251, 252, 253, 254, 255, 256, 257, 258, 259, 260, 261, 262, 263, 264, 265, 266, 267, 268, 269, 270, 271, 272, 273, 274, 275, 276, 277, 278, 279, 280, 281, 282, 283, 284, 285, 286, 287, 288, 289, 290, 291, 292, 293, 294, 295, 296, 297, 298, 299, 300, 301, 302, 303, 304, 305, 306, 307, 308, 309, 310, 311, 312, 313, 314, 315, 316, 317, 318, 319, 320, 321, 322, 323, 324, 325, 326, 327, 328, 329, 330, 331, 332, 333, 334, 335, 336, 337, 338, 339, 340, 341, 342, 343, 344, 345, 346, 347, 348, 349, 350, 351, 352, 353, 354, 355, 356, 357, 358, 359, 360, 361, 362, 363, 364, 365, 366, 367, 368, 369, 370, 371, 372, 373, 374, 375, 376, 377, 378, 379, 380, 381, 382, 383, 384, 385, 386, 387, 388, 389, 390, 391, 392, 393, 394, 395, 396, 397, 398, 399, 400, 401, 402, 403, 404, 405, 406, 407, 408, 409, 410, 411, 412, 413, 414, 415, 416, 417, 418, 419, 420, 421, 422, 423, 424, 425, 426, 427, 428, 429, 430, 431, 432, 433, 434, 435, 436, 437, 438, 439, 440, 441, 442, 443, 444, 445, 446],
      "AcquisitionTime": ["180958.127500", "180959.617500", "181001.107500", "181002.597500", "181004.087500", "181005.577500", "181007.067500", "181008.557500", "181010.047500", "181011.537500", "181013.027500", "181014.517500", "181016.007500", "181017.497500", "181018.987500", "181020.477500", "181021.967500", "181023.457500", "181024.947500", "181026.437500", "181027.927500", "181029.417500", "181030.907500", "181032.397500", "181033.887500", "181035.377500", "181036.867500", "181038.357500", "181039.847500", "181041.337500", "181042.827500", "181044.317500", "181045.807500", "181047.297500", "181048.787500", "181050.277500", "181051.767500", "181053.257500", "181054.747500", "181056.237500", "181057.727500", "181059.217500", "181100.707500", "181102.197500", "181103.687500", "181105.177500", "181106.667500", "181108.157500", "181109.647500", "181111.137500", "181112.627500", "181114.117500", "181115.607500", "181117.097500", "181118.587500", "181120.077500", "181121.567500", "181123.057500", "181124.547500", "181126.037500", "181127.527500", "181129.017500", "181130.507500", "181131.997500", "181133.487500", "181134.977500", "181136.467500", "181137.957500", "181139.447500", "181140.937500", "181142.427500", "181143.917500", "181145.407500", "181146.897500", "181148.387500", "181149.877500", "181151.367500", "181152.857500", "181154.347500", "181155.837500", "181157.327500", "181158.817500", "181200.307500", "181201.797500", "181203.287500", "181204.777500", "181206.267500", "181207.757500", "181209.247500", "181210.737500", "181212.227500", "181213.717500", "181215.207500", "181216.697500", "181218.187500", "181219.677500", "181221.167500", "181222.657500", "181224.147500", "181225.637500", "181227.127500", "181228.617500", "181230.107500", "181231.597500", "181233.087500", "181234.577500", "181236.067500", "181237.557500", "181239.047500", "181240.537500", "181242.027500", "181243.517500", "181245.007500", "181246.497500", "181247.987500", "181249.477500", "181250.967500", "181252.457500", "181253.947500", "181255.437500", "181256.927500", "181258.417500", "181259.907500", "181301.397500", "181302.887500", "181304.377500", "181305.867500", "181307.357500", "181308.847500", "181310.337500", "181311.827500", "181313.317500", "181314.807500", "181316.297500", "181317.787500", "181319.277500", "181320.767500", "181322.257500", "181323.747500", "181325.237500", "181326.727500", "181328.217500", "181329.707500", "181331.197500", "181332.687500", "181334.177500", "181335.667500", "181337.157500", "181338.647500", "181340.137500", "181341.627500", "181343.117500", "181344.607500", "181346.097500", "181347.587500", "181349.077500", "181350.567500", "181352.057500", "181353.547500", "181355.037500", "181356.527500", "181358.017500", "181359.507500", "181400.997500", "181402.487500", "181403.977500", "181405.467500", "181406.957500", "181408.447500", "181409.937500", "181411.427500", "181412.917500", "181414.407500", "181415.897500", "181417.387500", "181418.877500", "181420.367500", "181421.857500", "181423.347500", "181424.837500", "181426.327500", "181427.817500", "181429.307500", "181430.797500", "181432.287500", "181433.777500", "181435.267500", "181436.757500", "181438.247500", "181439.737500", "181441.227500", "181442.717500", "181444.207500", "181445.697500", "181447.187500", "181448.677500", "181450.167500", "181451.657500", "181453.147500", "181454.637500", "181456.127500", "181457.617500", "181459.107500", "181500.597500", "181502.087500", "181503.577500", "181505.067500", "181506.557500", "181508.047500", "181509.537500", "181511.027500", "181512.517500", "181514.007500", "181515.497500", "181516.987500", "181518.477500", "181519.967500", "181521.457500", "181522.947500", "181524.437500", "181525.927500", "181527.417500", "181528.907500", "181530.397500", "181531.887500", "181533.377500", "181534.867500", "181536.357500", "181537.847500", "181539.337500", "181540.827500", "181542.317500", "181543.807500", "181545.297500", "181546.787500", "181548.277500", "181549.767500", "181551.257500", "181552.747500", "181554.237500", "181555.727500", "181557.217500", "181558.707500", "181600.197500", "181601.687500", "181603.177500", "181604.667500", "181606.157500", "181607.647500", "181609.137500", "181610.627500", "181612.117500", "181613.607500", "181615.097500", "181616.587500", "181618.077500", "181619.567500", "181621.057500", "181622.547500", "181624.037500", "181625.527500", "181627.017500", "181628.507500", "181629.997500", "181631.487500", "181632.977500", "181634.467500", "181635.957500", "181637.447500", "181638.937500", "181640.427500", "181641.917500", "181643.407500", "181644.897500", "181646.387500", "181647.877500", "181649.367500", "181650.857500", "181652.347500", "181653.837500", "181655.327500", "181656.817500", "181658.307500", "181659.797500", "181701.287500", "181702.777500", "181704.267500", "181705.757500", "181707.247500", "181708.737500", "181710.227500", "181711.717500", "181713.207500", "181714.697500", "181716.187500", "181717.677500", "181719.167500", "181720.657500", "181722.147500", "181723.637500", "181725.127500", "181726.617500", "181728.107500", "181729.597500", "181731.087500", "181732.577500", "181734.067500", "181735.557500", "181737.047500", "181738.537500", "181740.027500", "181741.517500", "181743.007500", "181744.497500", "181745.987500", "181747.477500", "181748.967500", "181750.457500", "181751.947500", "181753.437500", "181754.927500", "181756.417500", "181757.907500", "181759.397500", "181800.887500", "181802.377500", "181803.867500", "181805.357500", "181806.847500", "181808.337500", "181809.827500", "181811.317500", "181812.807500", "181814.297500", "181815.787500", "181817.277500", "181818.767500", "181820.257500", "181821.747500", "181823.237500", "181824.727500", "181826.217500", "181827.707500", "181829.197500", "181830.687500", "181832.177500", "181833.667500", "181835.157500", "181836.647500", "181838.137500", "181839.627500", "181841.117500", "181842.607500", "181844.097500", "181845.587500", "181847.077500", "181848.567500", "181850.057500", "181851.547500", "181853.037500", "181854.527500", "181856.017500", "181857.507500", "181858.997500", "181900.487500", "181901.977500", "181903.467500", "181904.957500", "181906.447500", "181907.937500", "181909.427500", "181910.917500", "181912.407500", "181913.897500", "181915.387500", "181916.877500", "181918.367500", "181919.857500", "181921.347500", "181922.837500", "181924.327500", "181925.817500", "181927.307500", "181928.797500", "181930.287500", "181931.777500", "181933.267500", "181934.757500", "181936.247500", "181937.737500", "181939.227500", "181940.717500", "181942.207500", "181943.697500", "181945.187500", "181946.677500", "181948.167500", "181949.657500", "181951.147500", "181952.637500", "181954.127500", "181955.617500", "181957.107500", "181958.597500", "182000.087500", "182001.577500", "182003.067500", "182004.557500", "182006.047500", "182007.537500", "182009.027500", "182010.517500", "182012.007500", "182013.497500", "182014.987500", "182016.477500", "182017.967500", "182019.457500", "182020.947500", "182022.437500", "182023.927500", "182025.417500", "182026.907500", "182028.397500", "182029.887500", "182031.377500", "182032.867500", "182034.357500", "182035.847500", "182037.337500", "182038.827500", "182040.317500", "182041.807500", "182043.297500", "182044.787500", "182046.277500", "182047.767500", "182049.257500", "182050.747500", "182052.237500", "182053.727500", "182055.217500", "182056.707500", "182058.197500", "182059.687500", "182101.177500"],
      "ContentTime": ["181126.217000", "181126.220000", "181126.229000", "181126.232000", "181126.234000", "181126.237000", "181126.239000", "181126.242000", "181126.244000", "181126.247000", "181126.249000", "181126.252000", "181126.254000", "181126.257000", "181126.259000", "181126.262000", "181126.264000", "181126.267000", "181126.270000", "181126.272000", "181126.275000", "181126.278000", "181126.280000", "181126.283000", "181126.285000", "181126.288000", "181126.290000", "181126.293000", "181126.295000", "181126.298000", "181126.300000", "181126.303000", "181126.305000", "181126.308000", "181126.310000", "181126.313000", "181126.315000", "181126.325000", "181146.053000", "181146.056000", "181146.059000", "181146.061000", "181146.064000", "181146.066000", "181146.069000", "181146.071000", "181146.074000", "181146.077000", "181146.079000", "181146.082000", "181146.084000", "181146.087000", "181146.089000", "181146.092000", "181146.094000", "181146.097000", "181146.099000", "181146.102000", "181206.058000", "181206.061000", "181206.063000", "181206.066000", "181206.068000", "181206.071000", "181206.074000", "181206.076000", "181206.079000", "181206.081000", "181206.084000", "181206.087000", "181206.090000", "181206.092000", "181206.095000", "181206.098000", "181206.100000", "181206.103000", "181206.105000", "181206.108000", "181226.073000", "181226.076000", "181226.078000", "181226.081000", "181226.083000", "181226.086000", "181226.088000", "181226.091000", "181226.093000", "181226.096000", "181226.098000", "181226.101000", "181226.103000", "181226.106000", "181226.108000", "181226.111000", "181226.114000", "181226.116000", "181226.119000", "181226.121000", "181306.109000", "181306.112000", "181306.114000", "181306.117000", "181306.120000", "181306.122000", "181306.125000", "181306.127000", "181306.130000", "181306.133000", "181306.135000", "181306.138000", "181306.140000", "181306.143000", "181306.145000", "181306.148000", "181306.150000", "181306.153000", "181306.155000", "181306.158000", "181306.160000", "181306.163000", "181306.166000", "181306.169000", "181306.171000", "181306.174000", "181306.177000", "181346.100000", "181346.103000", "181346.106000", "181346.108000", "181346.111000", "181346.113000", "181346.116000", "181346.118000", "181346.121000", "181346.123000", "181346.126000", "181346.129000", "181346.131000", "181346.134000", "181346.136000", "181346.139000", "181346.141000", "181346.144000", "181346.147000", "181346.149000", "181346.152000", "181346.154000", "181346.157000", "181346.159000", "181346.162000", "181346.164000", "181346.167000", "181426.102000", "181426.105000", "181426.107000", "181426.110000", "181426.113000", "181426.115000", "181426.118000", "181426.120000", "181426.123000", "181426.125000", "181426.128000", "181426.130000", "181426.133000", "181426.135000", "181426.138000", "181426.141000", "181426.143000", "181426.146000", "181426.148000", "181426.151000", "181426.153000", "181426.156000", "181426.158000", "181426.161000", "181426.163000", "181426.166000", "181426.168000", "181506.098000", "181506.101000", "181506.104000", "181506.106000", "181506.109000", "181506.111000", "181506.114000", "181506.116000", "181506.119000", "181506.121000", "181506.124000", "181506.126000", "181506.129000", "181506.131000", "181506.134000", "181506.136000", "181506.139000", "181506.142000", "181506.144000", "181506.147000", "181506.149000", "181506.152000", "181506.154000", "181506.157000", "181506.159000", "181506.162000", "181506.164000", "181546.095000", "181546.098000", "181546.101000", "181546.103000", "181546.106000", "181546.108000", "181546.111000", "181546.113000", "181546.116000", "181546.119000", "181546.121000", "181546.124000", "181546.126000", "181546.129000", "181546.131000", "181546.134000", "181546.136000", "181546.139000", "181546.141000", "181546.144000", "181546.146000", "181546.149000", "181546.151000", "181546.154000", "181546.157000", "181546.159000", "181546.162000", "181626.120000", "181626.123000", "181626.126000", "181626.129000", "181626.131000", "181626.134000", "181626.136000", "181626.139000", "181626.141000", "181626.144000", "181626.147000", "181626.149000", "181626.152000", "181626.154000", "181626.157000", "181626.159000", "181626.162000", "181626.164000", "181626.167000", "181626.169000", "181626.172000", "181626.175000", "181626.177000", "181626.180000", "181626.182000", "181626.185000", "181626.187000", "181706.083000", "181706.085000", "181706.088000", "181706.090000", "181706.093000", "181706.096000", "181706.098000", "181706.101000", "181706.103000", "181706.106000", "181706.109000", "181706.111000", "181706.114000", "181706.116000", "181706.119000", "181706.121000", "181706.124000", "181706.127000", "181706.129000", "181706.132000", "181706.134000", "181706.137000", "181706.140000", "181706.142000", "181706.145000", "181706.148000", "181746.096000", "181746.099000", "181746.101000", "181746.104000", "181746.106000", "181746.109000", "181746.112000", "181746.114000", "181746.117000", "181746.119000", "181746.122000", "181746.125000", "181746.127000", "181746.130000", "181746.132000", "181746.135000", "181746.137000", "181746.140000", "181746.142000", "181746.145000", "181746.147000", "181746.150000", "181746.153000", "181746.155000", "181746.158000", "181746.161000", "181746.164000", "181826.099000", "181826.102000", "181826.105000", "181826.107000", "181826.110000", "181826.112000", "181826.115000", "181826.117000", "181826.120000", "181826.122000", "181826.125000", "181826.128000", "181826.130000", "181826.133000", "181826.135000", "181826.138000", "181826.140000", "181826.143000", "181826.145000", "181826.148000", "181826.150000", "181826.153000", "181826.155000", "181826.158000", "181826.160000", "181826.163000", "181826.166000", "181906.096000", "181906.099000", "181906.101000", "181906.104000", "181906.106000", "181906.109000", "181906.111000", "181906.114000", "181906.116000", "181906.119000", "181906.122000", "181906.124000", "181906.127000", "181906.129000", "181906.132000", "181906.134000", "181906.137000", "181906.140000", "181906.142000", "181906.145000", "181906.147000", "181906.150000", "181906.153000", "181906.155000", "181906.158000", "181906.160000", "181906.163000", "181946.093000", "181946.095000", "181946.098000", "181946.101000", "181946.103000", "181946.106000", "181946.108000", "181946.111000", "181946.113000", "181946.116000", "181946.118000", "181946.121000", "181946.124000", "181946.126000", "181946.129000", "181946.131000", "181946.134000", "181946.136000", "181946.139000", "181946.141000", "181946.144000", "181946.146000", "181946.149000", "181946.151000", "181946.154000", "181946.157000", "181946.159000", "182026.108000", "182026.110000", "182026.113000", "182026.116000", "182026.118000", "182026.121000", "182026.123000", "182026.126000", "182026.128000", "182026.131000", "182026.133000", "182026.136000", "182026.138000", "182026.141000", "182026.143000", "182026.146000", "182026.148000", "182026.151000", "182026.153000", "182026.156000", "182026.158000", "182026.161000", "182026.164000", "182026.166000", "182026.169000", "182026.171000", "182026.174000", "182104.028000", "182104.031000", "182104.034000", "182104.036000", "182104.039000", "182104.041000", "182104.044000", "182104.047000", "182104.049000", "182104.052000", "182104.054000", "182104.057000", "182104.059000", "182104.062000", "182104.064000", "182104.067000", "182104.070000", "182104.072000", "182104.075000", "182104.077000", "182104.080000", "182104.082000", "182104.085000", "182104.087000", "182104.090000"],
