{
  "AcquisitionMatrixPE": 104,
  "AcquisitionNumber": 1,
  "AcquisitionTime": "17:56:54.375000",
  "BandwidthPerPixelPhaseEncode": 17.17,
  "BaseResolution": 104,
  "BodyPartExamined": "BRAIN",
  "CoilCombinationMethod": "Sum of Squares",
  "ConsistencyInfo": "N4_VE11C_LATEST_20160120",
  "ConversionSoftware": "dcm2niix",
  "ConversionSoftwareVersion": "v1.0.20211006",
  "DerivedVendorReportedEchoSpacing": 0.000560011,
  "DeviceSerialNumber": "167006",
  "DwellTime": 2.1e-06,
  "EchoTime": 0.037,
  "EchoTrainLength": 104,
  "EffectiveEchoSpacing": 0.000560011,
  "FlipAngle": 52,
  "HeudiconvVersion": "0.11.3.post9+gc939bf8",
  "ImageComments": "Unaliased MB4/PE3/LB",
  "ImageOrientationPatientDICOM": [0.999942, -0.00923024, 0.00551796, 0.0106463, 0.922074, -0.386867],
  "ImageOrientationText": "Tra>Cor(-22.8)>Sag(0.1)",
  "ImageType": [
    "ORIGINAL",
    "PRIMARY",
    "M",
    "MB",
    "ND",
    "MOSAIC"
],
  "ImagingFrequency": 123.259,
  "InPlanePhaseEncodingDirectionDICOM": "COL",
  "InstitutionAddress": "Chemin Queen-Mary 4565,Montreal,District,CA,H3W 1W5",
  "InstitutionName": "IUGM",
  "InstitutionalDepartmentName": "Department",
  "MRAcquisitionType": "2D",
  "MagneticFieldStrength": 3,
  "Manufacturer": "Siemens",
  "ManufacturersModelName": "Prisma_fit",
  "MatrixCoilMode": "SENSE",
  "Modality": "MR",
  "MultibandAccelerationFactor": 4,
  "PartialFourier": 1,
  "PatientPosition": "HFS",
  "PercentPhaseFOV": 100,
  "PercentSampling": 100,
  "PhaseEncodingDirection": "j",
  "PhaseEncodingSteps": 104,
  "PhaseResolution": 1,
  "PixelBandwidth": 2290,
  "ProcedureStepDescription": "games^mario",
  "ProtocolName": "func_task-mario_run-03",
  "PulseSequenceDetails": "%CustomerSeq%\\cmrr_mbep2d_bold",
  "ReceiveCoilActiveElements": "HC1-7;NC1,2",
  "ReceiveCoilName": "HeadNeck_64",
  "ReconMatrixPE": 104,
  "RepetitionTime": 1.49,
  "SAR": 0.054836,
  "ScanOptions": "FS",
  "ScanningSequence": "EP",
  "SequenceName": "epfid2d1_104",
  "SequenceVariant": "SK\\SS",
  "SeriesDescription": "func_task-mario_run-03",
  "SeriesNumber": 16,
  "ShimSetting": [617, -7241, -8836, 395, 11, -318, 2, 23],
  "SliceThickness": 2,
  "SliceTiming": [0, 0.7825, 0.0975, 0.88, 0.195, 0.98, 0.2925, 1.0775, 0.39, 1.175, 0.49, 1.2725, 0.5875, 1.37, 0.685, 0, 0.7825, 0.0975, 0.88, 0.195, 0.98, 0.2925, 1.0775, 0.39, 1.175, 0.49, 1.2725, 0.5875, 1.37, 0.685, 0, 0.7825, 0.0975, 0.88, 0.195, 0.98, 0.2925, 1.0775, 0.39, 1.175, 0.49, 1.2725, 0.5875, 1.37, 0.685, 0, 0.7825, 0.0975, 0.88, 0.195, 0.98, 0.2925, 1.0775, 0.39, 1.175, 0.49, 1.2725, 0.5875, 1.37, 0.685],
  "SoftwareVersions": "syngo MR E11",
  "SpacingBetweenSlices": 2,
  "StationName": "MRC35049",
  "TaskName": "mario",
  "TotalReadoutTime": 0.0576811,
  "TxRefAmp": 264.393,
  "WipMemBlock": "fbb6bff0-2be6-44b8-b000-4c511112d785||Sequence: R017 ve11c/master r/75a17815+; Jun 28 2022 16:32:11 by eja",
  "dcmmeta_affine": [
    [-1.9998843669891357, 0.02129260264337063, 0.00303418911062181, 102.41984558105469],
    [0.018460489809513092, 1.8441483974456787, -0.7738061547279358, -61.12049865722656],
    [0.011035921052098274, 0.773733377456665, 1.84423828125, -66.43930053710938],
    [0.0, 0.0, 0.0, 1.0]
],
  "dcmmeta_reorient_transform": [
    [0.0, -1.0, 0.0, 103.0],
    [1.0, 0.0, 0.0, 0.0],
    [0.0, 0.0, 1.0, 0.0],
    [0.0, 0.0, 0.0, 1.0]
],
  "dcmmeta_shape": [104, 104, 60, 466],
  "dcmmeta_slice_dim": 2,
  "dcmmeta_version": 0.6,
  "global": {
    "const": {
      "AcquisitionMatrix": [104, 0, 0, 104],
      "AngioFlag": "N",
      "BitsAllocated": 16,
      "BitsStored": 16,
      "BodyPartExamined": "BRAIN",
      "Columns": 832,
      "EchoNumbers": 1,
      "EchoTime": 37.0,
      "EchoTrainLength": 104,
      "FlipAngle": 52.0,
      "HighBit": 15,
      "ImageOrientationPatient": [0.99994217567342, -0.0092302449765, 0.00551796041862, 0.01064630141312, 0.92207419156209, -0.3868666973537],
      "ImagePositionPatient": [-840.32139820478, -793.37717765833, 290.8771198331],
      "ImageType": [
        "ORIGINAL",
        "PRIMARY",
        "M",
        "MB",
        "ND",
        "MOSAIC"
],
      "ImagedNucleus": "1H",
      "ImagingFrequency": 123.258798,
      "InPlanePhaseEncodingDirection": "COL",
      "MRAcquisitionType": "2D",
      "MagneticFieldStrength": 3.0,
      "Manufacturer": "SIEMENS",
      "ManufacturerModelName": "Prisma_fit",
      "Modality": "MR",
      "NumberOfAverages": 1.0,
      "NumberOfPhaseEncodingSteps": 104,
      "PercentPhaseFieldOfView": 100.0,
      "PercentSampling": 100.0,
      "PerformedProcedureStepStartTime": "170427.378000",
      "PhotometricInterpretation": "MONOCHROME2",
      "PixelBandwidth": 2290.0,
      "PixelRepresentation": 0,
      "PixelSpacing": [2.0, 2.0],
      "ProtocolName": "func_task-mario_run-03",
      "RepetitionTime": 1490.0,
      "Rows": 832,
      "SAR": 0.05483600573583,
      "SamplesPerPixel": 1,
      "ScanOptions": "FS",
      "ScanningSequence": "EP",
      "SequenceName": "epfid2d1_104",
      "SequenceVariant": [
        "SK",
        "SS"
],
      "SeriesDescription": "func_task-mario_run-03",
      "SeriesNumber": 16,
      "SeriesTime": "175803.306000",
      "SliceLocation": -37.461861106055,
      "SliceThickness": 2.0,
      "SmallestImagePixelValue": 0,
      "SoftwareVersions": "syngo MR E11",
      "SpacingBetweenSlices": 2.0000000011334,
      "SpecificCharacterSet": "ISO_IR 100",
      "StudyID": "1",
      "StudyTime": "170427.321000",
      "TransmitCoilName": "Body",
      "VariableFlipAngleFlag": "N",
      "WindowCenterWidthExplanation": "Algo1",
      "dBdt": 0.0},
    "slices": {}
  },
  "time": {
    "samples": {
      "AcquisitionNumber": [1, 2, 3, 4, 5, 6, 7, 8, 9, 10, 11, 12, 13, 14, 15, 16, 17, 18, 19, 20, 21, 22, 23, 24, 25, 26, 27, 28, 29, 30, 31, 32, 33, 34, 35, 36, 37, 38, 39, 40, 41, 42, 43, 44, 45, 46, 47, 48, 49, 50, 51, 52, 53, 54, 55, 56, 57, 58, 59, 60, 61, 62, 63, 64, 65, 66, 67, 68, 69, 70, 71, 72, 73, 74, 75, 76, 77, 78, 79, 80, 81, 82, 83, 84, 85, 86, 87, 88, 89, 90, 91, 92, 93, 94, 95, 96, 97, 98, 99, 100, 101, 102, 103, 104, 105, 106, 107, 108, 109, 110, 111, 112, 113, 114, 115, 116, 117, 118, 119, 120, 121, 122, 123, 124, 125, 126, 127, 128, 129, 130, 131, 132, 133, 134, 135, 136, 137, 138, 139, 140, 141, 142, 143, 144, 145, 146, 147, 148, 149, 150, 151, 152, 153, 154, 155, 156, 157, 158, 159, 160, 161, 162, 163, 164, 165, 166, 167, 168, 169, 170, 171, 172, 173, 174, 175, 176, 177, 178, 179, 180, 181, 182, 183, 184, 185, 186, 187, 188, 189, 190, 191, 192, 193, 194, 195, 196, 197, 198, 199, 200, 201, 202, 203, 204, 205, 206, 207, 208, 209, 210, 211, 212, 213, 214, 215, 216, 217, 218, 219, 220, 221, 222, 223, 224, 225, 226, 227, 228, 229, 230, 231, 232, 233, 234, 235, 236, 237, 238, 239, 240, 241, 242, 243, 244, 245, 246, 247, 248, 249, 250, 251, 252, 253, 254, 255, 256, 257, 258, 259, 260, 261, 262, 263, 264, 265, 266, 267, 268, 269, 270, 271, 272, 273, 274, 275, 276, 277, 278, 279, 280, 281, 282, 283, 284, 285, 286, 287, 288, 289, 290, 291, 292, 293, 294, 295, 296, 297, 298, 299, 300, 301, 302, 303, 304, 305, 306, 307, 308, 309, 310, 311, 312, 313, 314, 315, 316, 317, 318, 319, 320, 321, 322, 323, 324, 325, 326, 327, 328, 329, 330, 331, 332, 333, 334, 335, 336, 337, 338, 339, 340, 341, 342, 343, 344, 345, 346, 347, 348, 349, 350, 351, 352, 353, 354, 355, 356, 357, 358, 359, 360, 361, 362, 363, 364, 365, 366, 367, 368, 369, 370, 371, 372, 373, 374, 375, 376, 377, 378, 379, 380, 381, 382, 383, 384, 385, 386, 387, 388, 389, 390, 391, 392, 393, 394, 395, 396, 397, 398, 399, 400, 401, 402, 403, 404, 405, 406, 407, 408, 409, 410, 411, 412, 413, 414, 415, 416, 417, 418, 419, 420, 421, 422, 423, 424, 425, 426, 427, 428, 429, 430, 431, 432, 433, 434, 435, 436, 437, 438, 439, 440, 441, 442, 443, 444, 445, 446, 447, 448, 449, 450, 451, 452, 453, 454, 455, 456, 457, 458, 459, 460, 461, 462, 463, 464, 465, 466],
      "AcquisitionTime": ["175654.375000", "175655.865000", "175657.355000", "175658.845000", "175700.335000", "175701.825000", "175703.315000", "175704.805000", "175706.295000", "175707.785000", "175709.275000", "175710.765000", "175712.255000", "175713.745000", "175715.235000", "175716.725000", "175718.215000", "175719.705000", "175721.195000", "175722.685000", "175724.175000", "175725.665000", "175727.155000", "175728.645000", "175730.135000", "175731.625000", "175733.115000", "175734.605000", "175736.095000", "175737.585000", "175739.075000", "175740.565000", "175742.055000", "175743.545000", "175745.035000", "175746.525000", "175748.015000", "175749.505000", "175750.995000", "175752.485000", "175753.975000", "175755.465000", "175756.955000", "175758.445000", "175759.935000", "175801.425000", "175802.915000", "175804.405000", "175805.895000", "175807.385000", "175808.875000", "175810.365000", "175811.855000", "175813.345000", "175814.835000", "175816.325000", "175817.815000", "175819.305000", "175820.795000", "175822.285000", "175823.775000", "175825.265000", "175826.755000", "175828.245000", "175829.735000", "175831.225000", "175832.715000", "175834.205000", "175835.695000", "175837.185000", "175838.675000", "175840.165000", "175841.655000", "175843.145000", "175844.635000", "175846.125000", "175847.615000", "175849.105000", "175850.595000", "175852.085000", "175853.575000", "175855.065000", "175856.555000", "175858.045000", "175859.535000", "175901.025000", "175902.515000", "175904.005000", "175905.495000", "175906.985000", "175908.475000", "175909.965000", "175911.455000", "175912.945000", "175914.435000", "175915.925000", "175917.415000", "175918.905000", "175920.395000", "175921.885000", "175923.375000", "175924.865000", "175926.355000", "175927.845000", "175929.335000", "175930.825000", "175932.315000", "175933.805000", "175935.295000", "175936.785000", "175938.275000", "175939.765000", "175941.255000", "175942.745000", "175944.235000", "175945.725000", "175947.215000", "175948.705000", "175950.195000", "175951.685000", "175953.175000", "175954.665000", "175956.155000", "175957.645000", "175959.135000", "180000.625000", "180002.115000", "180003.605000", "180005.095000", "180006.585000", "180008.075000", "180009.565000", "180011.055000", "180012.545000", "180014.035000", "180015.525000", "180017.015000", "180018.505000", "180019.995000", "180021.485000", "180022.975000", "180024.465000", "180025.955000", "180027.445000", "180028.935000", "180030.425000", "180031.915000", "180033.405000", "180034.895000", "180036.385000", "180037.875000", "180039.365000", "180040.855000", "180042.345000", "180043.835000", "180045.325000", "180046.815000", "180048.305000", "180049.795000", "180051.285000", "180052.775000", "180054.265000", "180055.755000", "180057.245000", "180058.735000", "180100.225000", "180101.715000", "180103.205000", "180104.695000", "180106.185000", "180107.675000", "180109.165000", "180110.655000", "180112.145000", "180113.635000", "180115.125000", "180116.615000", "180118.105000", "180119.595000", "180121.085000", "180122.575000", "180124.065000", "180125.555000", "180127.045000", "180128.535000", "180130.025000", "180131.515000", "180133.005000", "180134.495000", "180135.985000", "180137.475000", "180138.965000", "180140.455000", "180141.945000", "180143.435000", "180144.925000", "180146.415000", "180147.905000", "180149.395000", "180150.885000", "180152.375000", "180153.865000", "180155.355000", "180156.845000", "180158.335000", "180159.825000", "180201.315000", "180202.805000", "180204.295000", "180205.785000", "180207.275000", "180208.765000", "180210.255000", "180211.745000", "180213.235000", "180214.725000", "180216.215000", "180217.705000", "180219.195000", "180220.685000", "180222.175000", "180223.665000", "180225.155000", "180226.645000", "180228.135000", "180229.625000", "180231.115000", "180232.605000", "180234.095000", "180235.585000", "180237.075000", "180238.565000", "180240.055000", "180241.545000", "180243.035000", "180244.525000", "180246.015000", "180247.505000", "180248.995000", "180250.485000", "180251.975000", "180253.465000", "180254.955000", "180256.445000", "180257.935000", "180259.425000", "180300.915000", "180302.405000", "180303.895000", "180305.385000", "180306.875000", "180308.365000", "180309.855000", "180311.345000", "180312.835000", "180314.325000", "180315.815000", "180317.305000", "180318.795000", "180320.285000", "180321.775000", "180323.265000", "180324.755000", "180326.245000", "180327.735000", "180329.225000", "180330.715000", "180332.205000", "180333.695000", "180335.185000", "180336.675000", "180338.165000", "180339.655000", "180341.145000", "180342.635000", "180344.125000", "180345.615000", "180347.105000", "180348.595000", "180350.085000", "180351.575000", "180353.065000", "180354.555000", "180356.045000", "180357.535000", "180359.025000", "180400.515000", "180402.005000", "180403.495000", "180404.985000", "180406.475000", "180407.965000", "180409.455000", "180410.945000", "180412.435000", "180413.925000", "180415.415000", "180416.905000", "180418.395000", "180419.885000", "180421.375000", "180422.865000", "180424.355000", "180425.845000", "180427.335000", "180428.825000", "180430.315000", "180431.805000", "180433.295000", "180434.785000", "180436.275000", "180437.765000", "180439.255000", "180440.745000", "180442.235000", "180443.725000", "180445.215000", "180446.705000", "180448.195000", "180449.685000", "180451.175000", "180452.665000", "180454.155000", "180455.645000", "180457.135000", "180458.625000", "180500.115000", "180501.605000", "180503.095000", "180504.585000", "180506.075000", "180507.565000", "180509.055000", "180510.545000", "180512.035000", "180513.525000", "180515.015000", "180516.505000", "180517.995000", "180519.485000", "180520.975000", "180522.465000", "180523.955000", "180525.445000", "180526.935000", "180528.425000", "180529.915000", "180531.405000", "180532.895000", "180534.385000", "180535.875000", "180537.365000", "180538.855000", "180540.345000", "180541.835000", "180543.325000", "180544.815000", "180546.305000", "180547.795000", "180549.285000", "180550.775000", "180552.265000", "180553.755000", "180555.245000", "180556.735000", "180558.225000", "180559.715000", "180601.205000", "180602.695000", "180604.185000", "180605.675000", "180607.165000", "180608.655000", "180610.145000", "180611.635000", "180613.125000", "180614.615000", "180616.105000", "180617.595000", "180619.085000", "180620.575000", "180622.065000", "180623.555000", "180625.045000", "180626.535000", "180628.025000", "180629.515000", "180631.005000", "180632.495000", "180633.985000", "180635.475000", "180636.965000", "180638.455000", "180639.945000", "180641.435000", "180642.925000", "180644.415000", "180645.905000", "180647.395000", "180648.885000", "180650.375000", "180651.865000", "180653.355000", "180654.845000", "180656.335000", "180657.825000", "180659.315000", "180700.805000", "180702.295000", "180703.785000", "180705.275000", "180706.765000", "180708.255000", "180709.745000", "180711.235000", "180712.725000", "180714.215000", "180715.705000", "180717.195000", "180718.685000", "180720.175000", "180721.665000", "180723.155000", "180724.645000", "180726.135000", "180727.625000", "180729.115000", "180730.605000", "180732.095000", "180733.585000", "180735.075000", "180736.565000", "180738.055000", "180739.545000", "180741.035000", "180742.525000", "180744.015000", "180745.505000", "180746.995000", "180748.485000", "180749.975000", "180751.465000", "180752.955000", "180754.445000", "180755.935000", "180757.425000", "180758.915000", "180800.405000", "180801.895000", "180803.385000", "180804.875000", "180806.365000", "180807.855000", "180809.345000", "180810.835000", "180812.325000", "180813.815000", "180815.305000", "180816.795000", "180818.285000", "180819.775000", "180821.265000", "180822.755000", "180824.245000", "180825.735000", "180827.225000"],
      "ContentTime": ["175803.309000", "175803.313000", "175803.317000", "175803.320000", "175803.323000", "175803.327000", "175803.330000", "175803.334000", "175803.337000", "175803.340000", "175803.344000", "175803.352000", "175803.355000", "175803.359000", "175803.363000", "175803.366000", "175803.370000", "175803.373000", "175803.376000", "175823.268000", "175823.272000", "175823.275000", "175823.278000", "175823.282000", "175823.285000", "175823.289000", "175823.292000", "175823.295000", "175823.299000", "175823.302000", "175823.306000", "175823.309000", "175823.312000", "175823.316000", "175823.320000", "175823.323000", "175823.326000", "175823.330000", "175823.333000", "175843.268000", "175843.272000", "175843.275000", "175843.279000", "175843.282000", "175843.285000", "175843.301000", "175843.304000", "175843.307000", "175843.311000", "175843.314000", "175843.322000", "175843.325000", "175843.329000", "175843.332000", "175843.336000", "175843.339000", "175843.343000", "175843.346000", "175843.349000", "175843.352000", "175903.268000", "175903.272000", "175903.275000", "175903.279000", "175903.282000", "175903.286000", "175903.289000", "175903.292000", "175903.296000", "175903.299000", "175903.302000", "175903.306000", "175903.316000", "175903.320000", "175903.323000", "175903.327000", "175903.330000", "175903.333000", "175903.337000", "175903.340000", "175943.268000", "175943.272000", "175943.275000", "175943.279000", "175943.287000", "175943.291000", "175943.294000", "175943.297000", "175943.301000", "175943.304000", "175943.307000", "175943.311000", "175943.315000", "175943.318000", "175943.321000", "175943.333000", "175943.336000", "175943.340000", "175943.343000", "175943.347000", "175943.350000", "175943.354000", "175943.357000", "175943.361000", "175943.364000", "175943.367000", "175943.371000", "175943.374000", "175943.378000", "175943.381000", "175943.384000", "175943.388000", "180023.268000", "180023.272000", "180023.275000", "180023.279000", "180023.282000", "180023.286000", "180023.289000", "180023.293000", "180023.296000", "180023.300000", "180023.303000", "180023.306000", "180023.310000", "180023.313000", "180023.317000", "180023.320000", "180023.324000", "180023.327000", "180023.330000", "180023.334000", "180023.337000", "180023.341000", "180023.344000", "180023.348000", "180023.351000", "180023.354000", "180023.357000", "180103.268000", "180103.272000", "180103.276000", "180103.293000", "180103.296000", "180103.299000", "180103.303000", "180103.306000", "180103.310000", "180103.313000", "180103.317000", "180103.320000", "180103.323000", "180103.327000", "180103.330000", "180103.334000", "180103.337000", "180103.341000", "180103.344000", "180103.347000", "180103.351000", "180103.354000", "180103.358000", "180103.361000", "180103.364000", "180103.368000", "180103.371000", "180143.268000", "180143.272000", "180143.275000", "180143.279000", "180143.282000", "180143.286000", "180143.289000", "180143.292000", "180143.296000", "180143.309000", "180143.312000", "180143.315000", "180143.319000", "180143.322000", "180143.325000", "180143.329000", "180143.332000", "180143.336000", "180143.339000", "180143.342000", "180143.346000", "180143.349000", "180143.352000", "180143.356000", "180143.359000", "180143.362000", "180143.366000", "180223.268000", "180223.272000", "180223.276000", "180223.279000", "180223.282000", "180223.286000", "180223.289000", "180223.292000", "180223.296000", "180223.299000", "180223.302000", "180223.306000", "180223.309000", "180223.313000", "180223.316000", "180223.319000", "180223.323000", "180223.326000", "180223.330000", "180223.333000", "180223.336000", "180223.344000", "180223.347000", "180223.351000", "180223.354000", "180223.358000", "180223.361000", "180303.268000", "180303.272000", "180303.275000", "180303.279000", "180303.282000", "180303.286000", "180303.289000", "180303.293000", "180303.296000", "180303.299000", "180303.303000", "180303.306000", "180303.310000", "180303.313000", "180303.316000", "180303.320000", "180303.323000", "180303.327000", "180303.330000", "180303.333000", "180303.337000", "180303.340000", "180303.362000", "180303.366000", "180303.369000", "180303.372000", "180303.376000", "180343.268000", "180343.272000", "180343.275000", "180343.279000", "180343.282000", "180343.285000", "180343.289000", "180343.292000", "180343.296000", "180343.299000", "180343.302000", "180343.306000", "180343.309000", "180343.312000", "180343.316000", "180343.319000", "180343.323000", "180343.326000", "180343.329000", "180343.333000", "180343.336000", "180343.339000", "180343.343000", "180343.346000", "180343.349000", "180343.353000", "180343.356000", "180423.268000", "180423.272000", "180423.275000", "180423.279000", "180423.282000", "180423.286000", "180423.289000", "180423.292000", "180423.296000", "180423.299000", "180423.302000", "180423.307000", "180423.310000", "180423.314000", "180423.317000", "180423.321000", "180423.324000", "180423.327000", "180423.331000", "180423.334000", "180423.337000", "180423.341000", "180423.344000", "180423.347000", "180423.351000", "180423.354000", "180503.268000", "180503.272000", "180503.275000", "180503.279000", "180503.282000", "180503.286000", "180503.289000", "180503.292000", "180503.296000", "180503.299000", "180503.302000", "180503.306000", "180503.309000", "180503.313000", "180503.316000", "180503.319000", "180503.323000", "180503.326000", "180503.329000", "180503.333000", "180503.336000", "180503.340000", "180503.343000", "180503.346000", "180503.350000", "180503.353000", "180503.356000", "180543.268000", "180543.272000", "180543.276000", "180543.279000", "180543.309000", "180543.312000", "180543.316000", "180543.319000", "180543.323000", "180543.326000", "180543.330000", "180543.333000", "180543.337000", "180543.340000", "180543.344000", "180543.347000", "180543.350000", "180543.354000", "180543.357000", "180543.360000", "180543.364000", "180543.367000", "180543.371000", "180543.374000", "180543.377000", "180543.381000", "180543.384000", "180623.268000", "180623.272000", "180623.276000", "180623.279000", "180623.282000", "180623.286000", "180623.289000", "180623.293000", "180623.296000", "180623.299000", "180623.304000", "180623.308000", "180623.311000", "180623.314000", "180623.318000", "180623.321000", "180623.324000", "180623.328000", "180623.331000", "180623.334000", "180623.338000", "180623.341000", "180623.345000", "180623.348000", "180623.351000", "180623.355000", "180623.358000", "180703.268000", "180703.272000", "180703.275000", "180703.279000", "180703.282000", "180703.285000", "180703.289000", "180703.292000", "180703.295000", "180703.299000", "180703.302000", "180703.306000", "180703.309000", "180703.312000", "180703.316000", "180703.319000", "180703.322000", "180703.326000", "180703.329000", "180703.332000", "180703.336000", "180703.339000", "180703.343000", "180703.346000", "180703.349000", "180703.353000", "180703.356000", "180743.269000", "180743.272000", "180743.276000", "180743.279000", "180743.282000", "180743.286000", "180743.289000", "180743.292000", "180743.306000", "180743.309000", "180743.312000", "180743.316000", "180743.319000", "180743.322000", "180743.326000", "180743.329000", "180743.333000", "180743.336000", "180743.339000", "180743.343000", "180743.346000", "180743.349000", "180743.353000", "180743.356000", "180743.360000", "180743.363000", "180743.366000", "180823.268000", "180823.272000", "180823.276000", "180823.279000", "180823.282000", "180823.286000", "180823.289000", "180823.292000", "180823.296000", "180823.299000", "180823.303000", "180823.306000", "180823.309000", "180823.313000", "180823.316000", "180823.320000", "180823.323000", "180823.326000", "180823.330000", "180823.333000", "180823.337000", "180823.340000", "180823.344000", "180823.347000", "180823.350000", "180823.354000", "180830.497000", "180830.501000", "180830.504000", "180830.508000", "180830.511000"],
