{
  "AcquisitionMatrixPE": 104,
  "AcquisitionNumber": 1,
  "AcquisitionTime": "17:42:8.487500",
  "BandwidthPerPixelPhaseEncode": 17.17,
  "BaseResolution": 104,
  "BodyPartExamined": "BRAIN",
  "CoilCombinationMethod": "Sum of Squares",
  "ConsistencyInfo": "N4_VE11C_LATEST_20160120",
  "ConversionSoftware": "dcm2niix",
  "ConversionSoftwareVersion": "v1.0.20211006",
  "DerivedVendorReportedEchoSpacing": 0.000560011,
  "DeviceSerialNumber": "167006",
  "DwellTime": 2.1e-06,
  "EchoTime": 0.037,
  "EchoTime1": 0.037,
  "EchoTime2": 0.001,
  "EchoTrainLength": 104,
  "EffectiveEchoSpacing": 0.000560011,
  "FlipAngle": 52,
  "HeudiconvVersion": "0.11.3.post9+gc939bf8",
  "ImageComments": "Unaliased MB4/PE3/LB",
  "ImageOrientationPatientDICOM": [0.999942, -0.00923024, 0.00551796, 0.0106463, 0.922074, -0.386867],
  "ImageOrientationText": "Tra>Cor(-22.8)>Sag(0.1)",
  "ImageType": [
    "ORIGINAL",
    "PRIMARY",
    "P",
    "MB",
    "ND",
    "MOSAIC",
    "PHASE"
],
  "ImagingFrequency": 123.259,
  "InPlanePhaseEncodingDirectionDICOM": "COL",
  "InstitutionAddress": "Chemin Queen-Mary 4565,Montreal,District,CA,H3W 1W5",
  "InstitutionName": "IUGM",
  "InstitutionalDepartmentName": "Department",
  "MRAcquisitionType": "2D",
  "MagneticFieldStrength": 3,
  "Manufacturer": "Siemens",
  "ManufacturersModelName": "Prisma_fit",
  "MatrixCoilMode": "SENSE",
  "Modality": "MR",
  "MultibandAccelerationFactor": 4,
  "PartialFourier": 1,
  "PatientPosition": "HFS",
  "PercentPhaseFOV": 100,
  "PercentSampling": 100,
  "PhaseEncodingDirection": "j",
  "PhaseEncodingSteps": 104,
  "PhaseResolution": 1,
  "PixelBandwidth": 2290,
  "ProcedureStepDescription": "games^mario",
  "ProtocolName": "func_task-mario_run-02",
  "PulseSequenceDetails": "%CustomerSeq%\\cmrr_mbep2d_bold",
  "ReceiveCoilActiveElements": "HC1-7;NC1,2",
  "ReceiveCoilName": "HeadNeck_64",
  "ReconMatrixPE": 104,
  "RepetitionTime": 1.49,
  "SAR": 0.054836,
  "ScanOptions": "FS",
  "ScanningSequence": "EP",
  "SequenceName": "epfid2d1_104",
  "SequenceVariant": "SK\\SS",
  "SeriesDescription": "func_task-mario_run-02",
  "SeriesNumber": 14,
  "ShimSetting": [617, -7241, -8836, 395, 11, -318, 2, 23],
  "SliceThickness": 2,
  "SliceTiming": [0, 0.785, 0.0975, 0.8825, 0.1975, 0.98, 0.295, 1.0775, 0.3925, 1.175, 0.49, 1.275, 0.5875, 1.3725, 0.6875, 0, 0.785, 0.0975, 0.8825, 0.1975, 0.98, 0.295, 1.0775, 0.3925, 1.175, 0.49, 1.275, 0.5875, 1.3725, 0.6875, 0, 0.785, 0.0975, 0.8825, 0.1975, 0.98, 0.295, 1.0775, 0.3925, 1.175, 0.49, 1.275, 0.5875, 1.3725, 0.6875, 0, 0.785, 0.0975, 0.8825, 0.1975, 0.98, 0.295, 1.0775, 0.3925, 1.175, 0.49, 1.275, 0.5875, 1.3725, 0.6875],
  "SoftwareVersions": "syngo MR E11",
  "SpacingBetweenSlices": 2,
  "StationName": "MRC35049",
  "TaskName": "mario",
  "TotalReadoutTime": 0.0576811,
  "TxRefAmp": 264.393,
  "WipMemBlock": "7214b60b-0b95-4dda-85cc-83073907ce35||Sequence: R017 ve11c/master r/75a17815+; Jun 28 2022 16:32:11 by eja",
  "dcmmeta_affine": [
    [-1.9998843669891357, 0.02129260264337063, 0.00303418911062181, 102.41984558105469],
    [0.018460489809513092, 1.8441483974456787, -0.7738061547279358, -61.12049865722656],
    [0.011035921052098274, 0.773733377456665, 1.84423828125, -66.43930053710938],
    [0.0, 0.0, 0.0, 1.0]
],
  "dcmmeta_reorient_transform": [
    [0.0, -1.0, 0.0, 103.0],
    [1.0, 0.0, 0.0, 0.0],
    [0.0, 0.0, 1.0, 0.0],
    [0.0, 0.0, 0.0, 1.0]
],
  "dcmmeta_shape": [104, 104, 60, 533],
  "dcmmeta_slice_dim": 2,
  "dcmmeta_version": 0.6,
  "global": {
    "const": {
      "AcquisitionMatrix": [104, 0, 0, 104],
      "AngioFlag": "N",
      "BitsAllocated": 16,
      "BitsStored": 16,
      "BodyPartExamined": "BRAIN",
      "Columns": 832,
      "EchoNumbers": 1,
      "EchoTime": 37.0,
      "EchoTrainLength": 104,
      "FlipAngle": 52.0,
      "HighBit": 15,
      "ImageOrientationPatient": [0.99994217567342, -0.0092302449765, 0.00551796041862, 0.01064630141312, 0.92207419156209, -0.3868666973537],
      "ImagePositionPatient": [-840.32139820478, -793.37717765833, 290.8771198331],
      "ImageType": [
        "ORIGINAL",
        "PRIMARY",
        "P",
        "MB",
        "ND",
        "MOSAIC"
],
      "ImagedNucleus": "1H",
      "ImagingFrequency": 123.258792,
      "InPlanePhaseEncodingDirection": "COL",
      "LargestImagePixelValue": 4095,
      "MRAcquisitionType": "2D",
      "MagneticFieldStrength": 3.0,
      "Manufacturer": "SIEMENS",
      "ManufacturerModelName": "Prisma_fit",
      "Modality": "MR",
      "NumberOfAverages": 1.0,
      "NumberOfPhaseEncodingSteps": 104,
      "PercentPhaseFieldOfView": 100.0,
      "PercentSampling": 100.0,
      "PerformedProcedureStepStartTime": "170427.378000",
      "PhotometricInterpretation": "MONOCHROME2",
      "PixelBandwidth": 2290.0,
      "PixelRepresentation": 0,
      "PixelSpacing": [2.0, 2.0],
      "ProtocolName": "func_task-mario_run-02",
      "RepetitionTime": 1490.0,
      "RescaleIntercept": -4096.0,
      "RescaleSlope": 2.0,
      "RescaleType": "US",
      "Rows": 832,
      "SAR": 0.05483600573583,
      "SamplesPerPixel": 1,
      "ScanOptions": "FS",
      "ScanningSequence": "EP",
      "SequenceName": "epfid2d1_104",
      "SequenceVariant": [
        "SK",
        "SS"
],
      "SeriesDescription": "func_task-mario_run-02",
      "SeriesNumber": 14,
      "SeriesTime": "174339.118000",
      "SliceLocation": -37.461861106055,
      "SliceThickness": 2.0,
      "SmallestImagePixelValue": 0,
      "SoftwareVersions": "syngo MR E11",
      "SpacingBetweenSlices": 2.0000000011334,
      "SpecificCharacterSet": "ISO_IR 100",
      "StudyID": "1",
      "StudyTime": "170427.321000",
      "TransmitCoilName": "Body",
      "VariableFlipAngleFlag": "N",
      "WindowCenterWidthExplanation": "Algo1",
      "dBdt": 0.0},
    "slices": {}
  },
  "time": {
    "samples": {
      "AcquisitionNumber": [1, 2, 3, 4, 5, 6, 7, 8, 9, 10, 11, 12, 13, 14, 15, 16, 17, 18, 19, 20, 21, 22, 23, 24, 25, 26, 27, 28, 29, 30, 31, 32, 33, 34, 35, 36, 37, 38, 39, 40, 41, 42, 43, 44, 45, 46, 47, 48, 49, 50, 51, 52, 53, 54, 55, 56, 57, 58, 59, 60, 61, 62, 63, 64, 65, 66, 67, 68, 69, 70, 71, 72, 73, 74, 75, 76, 77, 78, 79, 80, 81, 82, 83, 84, 85, 86, 87, 88, 89, 90, 91, 92, 93, 94, 95, 96, 97, 98, 99, 100, 101, 102, 103, 104, 105, 106, 107, 108, 109, 110, 111, 112, 113, 114, 115, 116, 117, 118, 119, 120, 121, 122, 123, 124, 125, 126, 127, 128, 129, 130, 131, 132, 133, 134, 135, 136, 137, 138, 139, 140, 141, 142, 143, 144, 145, 146, 147, 148, 149, 150, 151, 152, 153, 154, 155, 156, 157, 158, 159, 160, 161, 162, 163, 164, 165, 166, 167, 168, 169, 170, 171, 172, 173, 174, 175, 176, 177, 178, 179, 180, 181, 182, 183, 184, 185, 186, 187, 188, 189, 190, 191, 192, 193, 194, 195, 196, 197, 198, 199, 200, 201, 202, 203, 204, 205, 206, 207, 208, 209, 210, 211, 212, 213, 214, 215, 216, 217, 218, 219, 220, 221, 222, 223, 224, 225, 226, 227, 228, 229, 230, 231, 232, 233, 234, 235, 236, 237, 238, 239, 240, 241, 242, 243, 244, 245, 246, 247, 248, 249, 250, 251, 252, 253, 254, 255, 256, 257, 258, 259, 260, 261, 262, 263, 264, 265, 266, 267, 268, 269, 270, 271, 272, 273, 274, 275, 276, 277, 278, 279, 280, 281, 282, 283, 284, 285, 286, 287, 288, 289, 290, 291, 292, 293, 294, 295, 296, 297, 298, 299, 300, 301, 302, 303, 304, 305, 306, 307, 308, 309, 310, 311, 312, 313, 314, 315, 316, 317, 318, 319, 320, 321, 322, 323, 324, 325, 326, 327, 328, 329, 330, 331, 332, 333, 334, 335, 336, 337, 338, 339, 340, 341, 342, 343, 344, 345, 346, 347, 348, 349, 350, 351, 352, 353, 354, 355, 356, 357, 358, 359, 360, 361, 362, 363, 364, 365, 366, 367, 368, 369, 370, 371, 372, 373, 374, 375, 376, 377, 378, 379, 380, 381, 382, 383, 384, 385, 386, 387, 388, 389, 390, 391, 392, 393, 394, 395, 396, 397, 398, 399, 400, 401, 402, 403, 404, 405, 406, 407, 408, 409, 410, 411, 412, 413, 414, 415, 416, 417, 418, 419, 420, 421, 422, 423, 424, 425, 426, 427, 428, 429, 430, 431, 432, 433, 434, 435, 436, 437, 438, 439, 440, 441, 442, 443, 444, 445, 446, 447, 448, 449, 450, 451, 452, 453, 454, 455, 456, 457, 458, 459, 460, 461, 462, 463, 464, 465, 466, 467, 468, 469, 470, 471, 472, 473, 474, 475, 476, 477, 478, 479, 480, 481, 482, 483, 484, 485, 486, 487, 488, 489, 490, 491, 492, 493, 494, 495, 496, 497, 498, 499, 500, 501, 502, 503, 504, 505, 506, 507, 508, 509, 510, 511, 512, 513, 514, 515, 516, 517, 518, 519, 520, 521, 522, 523, 524, 525, 526, 527, 528, 529, 530, 531, 532, 533],
      "AcquisitionTime": ["174208.487500", "174209.977500", "174211.467500", "174212.957500", "174214.447500", "174215.937500", "174217.427500", "174218.917500", "174220.407500", "174221.897500", "174223.387500", "174224.877500", "174226.367500", "174227.857500", "174229.347500", "174230.837500", "174232.327500", "174233.817500", "174235.307500", "174236.797500", "174238.287500", "174239.777500", "174241.267500", "174242.757500", "174244.247500", "174245.737500", "174247.227500", "174248.717500", "174250.207500", "174251.697500", "174253.187500", "174254.677500", "174256.167500", "174257.657500", "174259.147500", "174300.637500", "174302.127500", "174303.617500", "174305.107500", "174306.597500", "174308.087500", "174309.577500", "174311.067500", "174312.557500", "174314.047500", "174315.537500", "174317.027500", "174318.517500", "174320.007500", "174321.497500", "174322.987500", "174324.477500", "174325.967500", "174327.457500", "174328.947500", "174330.437500", "174331.927500", "174333.417500", "174334.907500", "174336.397500", "174337.887500", "174339.377500", "174340.867500", "174342.357500", "174343.847500", "174345.337500", "174346.827500", "174348.317500", "174349.807500", "174351.297500", "174352.787500", "174354.277500", "174355.767500", "174357.257500", "174358.747500", "174400.237500", "174401.727500", "174403.217500", "174404.707500", "174406.197500", "174407.687500", "174409.177500", "174410.667500", "174412.157500", "174413.647500", "174415.137500", "174416.627500", "174418.117500", "174419.607500", "174421.097500", "174422.587500", "174424.077500", "174425.567500", "174427.057500", "174428.547500", "174430.037500", "174431.527500", "174433.017500", "174434.507500", "174435.997500", "174437.487500", "174438.977500", "174440.467500", "174441.957500", "174443.447500", "174444.937500", "174446.427500", "174447.917500", "174449.407500", "174450.897500", "174452.387500", "174453.877500", "174455.367500", "174456.857500", "174458.347500", "174459.837500", "174501.327500", "174502.817500", "174504.307500", "174505.797500", "174507.287500", "174508.777500", "174510.267500", "174511.757500", "174513.247500", "174514.737500", "174516.227500", "174517.717500", "174519.207500", "174520.697500", "174522.187500", "174523.677500", "174525.167500", "174526.657500", "174528.147500", "174529.637500", "174531.127500", "174532.617500", "174534.107500", "174535.597500", "174537.087500", "174538.577500", "174540.067500", "174541.557500", "174543.047500", "174544.537500", "174546.027500", "174547.517500", "174549.007500", "174550.497500", "174551.987500", "174553.477500", "174554.967500", "174556.457500", "174557.947500", "174559.437500", "174600.927500", "174602.417500", "174603.907500", "174605.397500", "174606.887500", "174608.377500", "174609.867500", "174611.357500", "174612.847500", "174614.337500", "174615.827500", "174617.317500", "174618.807500", "174620.297500", "174621.787500", "174623.277500", "174624.767500", "174626.257500", "174627.747500", "174629.237500", "174630.727500", "174632.217500", "174633.707500", "174635.197500", "174636.687500", "174638.177500", "174639.667500", "174641.157500", "174642.647500", "174644.137500", "174645.627500", "174647.117500", "174648.607500", "174650.097500", "174651.587500", "174653.077500", "174654.567500", "174656.057500", "174657.547500", "174659.037500", "174700.527500", "174702.017500", "174703.507500", "174704.997500", "174706.487500", "174707.977500", "174709.467500", "174710.957500", "174712.447500", "174713.937500", "174715.427500", "174716.917500", "174718.407500", "174719.897500", "174721.387500", "174722.877500", "174724.367500", "174725.857500", "174727.347500", "174728.837500", "174730.327500", "174731.817500", "174733.307500", "174734.797500", "174736.287500", "174737.777500", "174739.267500", "174740.757500", "174742.247500", "174743.737500", "174745.227500", "174746.717500", "174748.207500", "174749.697500", "174751.187500", "174752.677500", "174754.167500", "174755.657500", "174757.147500", "174758.637500", "174800.127500", "174801.617500", "174803.107500", "174804.597500", "174806.087500", "174807.577500", "174809.067500", "174810.557500", "174812.047500", "174813.537500", "174815.027500", "174816.517500", "174818.007500", "174819.497500", "174820.987500", "174822.477500", "174823.967500", "174825.457500", "174826.947500", "174828.437500", "174829.927500", "174831.417500", "174832.907500", "174834.397500", "174835.887500", "174837.377500", "174838.867500", "174840.357500", "174841.847500", "174843.337500", "174844.827500", "174846.317500", "174847.807500", "174849.297500", "174850.787500", "174852.277500", "174853.767500", "174855.257500", "174856.747500", "174858.237500", "174859.727500", "174901.217500", "174902.707500", "174904.197500", "174905.687500", "174907.177500", "174908.667500", "174910.157500", "174911.647500", "174913.137500", "174914.627500", "174916.117500", "174917.607500", "174919.097500", "174920.587500", "174922.077500", "174923.567500", "174925.057500", "174926.547500", "174928.037500", "174929.527500", "174931.017500", "174932.507500", "174933.997500", "174935.487500", "174936.977500", "174938.467500", "174939.957500", "174941.447500", "174942.937500", "174944.427500", "174945.917500", "174947.407500", "174948.897500", "174950.387500", "174951.877500", "174953.367500", "174954.857500", "174956.347500", "174957.837500", "174959.327500", "175000.817500", "175002.307500", "175003.797500", "175005.287500", "175006.777500", "175008.267500", "175009.757500", "175011.247500", "175012.737500", "175014.227500", "175015.717500", "175017.207500", "175018.697500", "175020.187500", "175021.677500", "175023.167500", "175024.657500", "175026.147500", "175027.637500", "175029.127500", "175030.617500", "175032.107500", "175033.597500", "175035.087500", "175036.577500", "175038.067500", "175039.557500", "175041.047500", "175042.537500", "175044.027500", "175045.517500", "175047.007500", "175048.497500", "175049.987500", "175051.477500", "175052.967500", "175054.457500", "175055.947500", "175057.437500", "175058.927500", "175100.417500", "175101.907500", "175103.397500", "175104.887500", "175106.377500", "175107.867500", "175109.357500", "175110.847500", "175112.337500", "175113.827500", "175115.317500", "175116.807500", "175118.297500", "175119.787500", "175121.277500", "175122.767500", "175124.257500", "175125.747500", "175127.237500", "175128.727500", "175130.217500", "175131.707500", "175133.197500", "175134.687500", "175136.177500", "175137.667500", "175139.157500", "175140.647500", "175142.137500", "175143.627500", "175145.117500", "175146.607500", "175148.097500", "175149.587500", "175151.077500", "175152.567500", "175154.057500", "175155.547500", "175157.037500", "175158.527500", "175200.017500", "175201.507500", "175202.997500", "175204.487500", "175205.977500", "175207.467500", "175208.957500", "175210.447500", "175211.937500", "175213.427500", "175214.917500", "175216.407500", "175217.897500", "175219.387500", "175220.877500", "175222.367500", "175223.857500", "175225.347500", "175226.837500", "175228.327500", "175229.817500", "175231.307500", "175232.797500", "175234.287500", "175235.777500", "175237.267500", "175238.757500", "175240.247500", "175241.737500", "175243.227500", "175244.717500", "175246.207500", "175247.697500", "175249.187500", "175250.677500", "175252.167500", "175253.657500", "175255.147500", "175256.637500", "175258.127500", "175259.617500", "175301.107500", "175302.597500", "175304.087500", "175305.577500", "175307.067500", "175308.557500", "175310.047500", "175311.537500", "175313.027500", "175314.517500", "175316.007500", "175317.497500", "175318.987500", "175320.477500", "175321.967500", "175323.457500", "175324.947500", "175326.437500", "175327.927500", "175329.417500", "175330.907500", "175332.397500", "175333.887500", "175335.377500", "175336.867500", "175338.357500", "175339.847500", "175341.337500", "175342.827500", "175344.317500", "175345.807500", "175347.297500", "175348.787500", "175350.277500", "175351.767500", "175353.257500", "175354.747500", "175356.237500", "175357.727500", "175359.217500", "175400.707500", "175402.197500", "175403.687500", "175405.177500", "175406.667500", "175408.157500", "175409.647500", "175411.137500", "175412.627500", "175414.117500", "175415.607500", "175417.097500", "175418.587500", "175420.077500", "175421.567500", "175423.057500", "175424.547500", "175426.037500", "175427.527500", "175429.017500", "175430.507500", "175431.997500", "175433.487500", "175434.977500", "175436.467500", "175437.957500", "175439.447500", "175440.937500", "175442.427500", "175443.917500", "175445.407500", "175446.897500", "175448.387500", "175449.877500", "175451.367500", "175452.857500", "175454.347500", "175455.837500", "175457.327500", "175458.817500", "175500.307500", "175501.797500", "175503.287500", "175504.777500", "175506.267500", "175507.757500", "175509.247500", "175510.737500", "175512.227500", "175513.717500", "175515.207500", "175516.697500", "175518.187500", "175519.677500", "175521.167500"],
      "ContentTime": ["174339.120000", "174339.123000", "174339.125000", "174339.128000", "174339.131000", "174339.133000", "174339.136000", "174339.138000", "174339.141000", "174339.143000", "174339.146000", "174339.149000", "174339.151000", "174339.154000", "174339.156000", "174339.159000", "174339.161000", "174339.164000", "174339.166000", "174339.169000", "174339.171000", "174339.193000", "174339.195000", "174339.198000", "174339.200000", "174339.203000", "174339.205000", "174339.208000", "174339.211000", "174339.213000", "174339.216000", "174339.218000", "174339.221000", "174339.223000", "174339.226000", "174339.228000", "174339.231000", "174339.233000", "174358.993000", "174358.995000", "174358.998000", "174359.001000", "174359.003000", "174359.006000", "174359.009000", "174359.011000", "174359.014000", "174359.016000", "174359.019000", "174359.021000", "174359.024000", "174359.026000", "174359.029000", "174359.032000", "174359.034000", "174359.037000", "174359.039000", "174359.042000", "174418.986000", "174418.989000", "174418.991000", "174418.994000", "174418.997000", "174418.999000", "174419.002000", "174419.004000", "174419.007000", "174419.009000", "174419.012000", "174419.014000", "174419.017000", "174419.020000", "174419.022000", "174419.025000", "174419.027000", "174419.030000", "174419.032000", "174419.035000", "174438.990000", "174438.993000", "174438.996000", "174438.998000", "174439.001000", "174439.004000", "174439.006000", "174439.009000", "174439.012000", "174439.014000", "174439.017000", "174439.019000", "174439.022000", "174439.025000", "174439.027000", "174439.030000", "174439.032000", "174439.035000", "174439.037000", "174439.040000", "174519.027000", "174519.030000", "174519.032000", "174519.035000", "174519.038000", "174519.040000", "174519.043000", "174519.045000", "174519.048000", "174519.050000", "174519.053000", "174519.055000", "174519.058000", "174519.060000", "174519.063000", "174519.066000", "174519.068000", "174519.071000", "174519.073000", "174519.076000", "174519.078000", "174519.081000", "174519.083000", "174519.086000", "174519.089000", "174519.091000", "174519.094000", "174519.106000", "174519.108000", "174559.034000", "174559.037000", "174559.040000", "174559.042000", "174559.045000", "174559.047000", "174559.050000", "174559.052000", "174559.055000", "174559.058000", "174559.060000", "174559.063000", "174559.065000", "174559.068000", "174559.071000", "174559.073000", "174559.076000", "174559.079000", "174559.081000", "174559.084000", "174559.086000", "174559.089000", "174559.091000", "174559.094000", "174559.097000", "174559.099000", "174639.014000", "174639.017000", "174639.020000", "174639.023000", "174639.025000", "174639.028000", "174639.030000", "174639.033000", "174639.036000", "174639.038000", "174639.041000", "174639.044000", "174639.046000", "174639.049000", "174639.051000", "174639.054000", "174639.056000", "174639.059000", "174639.062000", "174639.064000", "174639.067000", "174639.069000", "174639.072000", "174639.074000", "174639.077000", "174639.079000", "174639.082000", "174719.004000", "174719.007000", "174719.010000", "174719.012000", "174719.015000", "174719.017000", "174719.020000", "174719.023000", "174719.025000", "174719.028000", "174719.030000", "174719.033000", "174719.035000", "174719.038000", "174719.040000", "174719.043000", "174719.045000", "174719.048000", "174719.051000", "174719.053000", "174719.056000", "174719.058000", "174719.061000", "174719.064000", "174719.066000", "174719.069000", "174719.072000", "174759.436000", "174759.439000", "174759.442000", "174759.444000", "174759.447000", "174759.449000", "174759.452000", "174759.455000", "174759.457000", "174759.460000", "174759.462000", "174759.465000", "174759.468000", "174759.470000", "174759.473000", "174759.476000", "174759.478000", "174759.481000", "174759.483000", "174759.487000", "174759.489000", "174759.492000", "174759.494000", "174759.497000", "174759.500000", "174759.502000", "174759.505000", "174839.014000", "174839.017000", "174839.019000", "174839.022000", "174839.024000", "174839.027000", "174839.030000", "174839.032000", "174839.035000", "174839.037000", "174839.040000", "174839.042000", "174839.045000", "174839.048000", "174839.050000", "174839.053000", "174839.055000", "174839.058000", "174839.061000", "174839.063000", "174839.066000", "174839.068000", "174839.071000", "174839.073000", "174839.076000", "174839.079000", "174839.081000", "174919.016000", "174919.019000", "174919.021000", "174919.024000", "174919.027000", "174919.029000", "174919.032000", "174919.035000", "174919.037000", "174919.040000", "174919.042000", "174919.045000", "174919.047000", "174919.050000", "174919.053000", "174919.055000", "174919.058000", "174919.060000", "174919.063000", "174919.066000", "174919.068000", "174919.071000", "174919.073000", "174919.076000", "174919.079000", "174919.081000", "174919.084000", "174959.024000", "174959.027000", "174959.029000", "174959.032000", "174959.035000", "174959.037000", "174959.040000", "174959.042000", "174959.045000", "174959.048000", "174959.050000", "174959.053000", "174959.055000", "174959.058000", "174959.061000", "174959.063000", "174959.066000", "174959.069000", "174959.071000", "174959.074000", "174959.076000", "174959.079000", "174959.081000", "174959.084000", "174959.086000", "174959.089000", "174959.092000", "175039.026000", "175039.029000", "175039.032000", "175039.034000", "175039.037000", "175039.040000", "175039.042000", "175039.045000", "175039.047000", "175039.050000", "175039.052000", "175039.055000", "175039.058000", "175039.060000", "175039.063000", "175039.065000", "175039.068000", "175039.071000", "175039.073000", "175039.076000", "175039.078000", "175039.081000", "175039.083000", "175039.086000", "175039.089000", "175039.091000", "175119.013000", "175119.015000", "175119.018000", "175119.021000", "175119.023000", "175119.026000", "175119.028000", "175119.031000", "175119.033000", "175119.036000", "175119.038000", "175119.041000", "175119.044000", "175119.046000", "175119.049000", "175119.051000", "175119.054000", "175119.057000", "175119.059000", "175119.062000", "175119.064000", "175119.067000", "175119.070000", "175119.072000", "175119.075000", "175119.077000", "175119.080000", "175159.004000", "175159.007000", "175159.010000", "175159.012000", "175159.015000", "175159.017000", "175159.020000", "175159.023000", "175159.025000", "175159.028000", "175159.030000", "175159.033000", "175159.036000", "175159.038000", "175159.041000", "175159.043000", "175159.046000", "175159.048000", "175159.051000", "175159.054000", "175159.056000", "175159.059000", "175159.061000", "175159.064000", "175159.066000", "175159.069000", "175159.072000", "175239.017000", "175239.020000", "175239.023000", "175239.025000", "175239.028000", "175239.031000", "175239.033000", "175239.039000", "175239.042000", "175239.044000", "175239.047000", "175239.050000", "175239.052000", "175239.055000", "175239.058000", "175239.060000", "175239.063000", "175239.065000", "175239.074000", "175239.077000", "175239.080000", "175239.082000", "175239.085000", "175239.087000", "175239.090000", "175239.092000", "175239.095000", "175319.027000", "175319.029000", "175319.032000", "175319.035000", "175319.037000", "175319.040000", "175319.042000", "175319.045000", "175319.047000", "175319.057000", "175319.059000", "175319.062000", "175319.065000", "175319.067000", "175319.070000", "175319.072000", "175319.075000", "175319.077000", "175319.080000", "175319.082000", "175319.085000", "175319.088000", "175319.090000", "175319.093000", "175319.095000", "175319.098000", "175319.100000", "175359.013000", "175359.016000", "175359.018000", "175359.021000", "175359.024000", "175359.026000", "175359.029000", "175359.031000", "175359.034000", "175359.037000", "175359.039000", "175359.042000", "175359.044000", "175359.047000", "175359.050000", "175359.052000", "175359.055000", "175359.057000", "175359.060000", "175359.062000", "175359.065000", "175359.068000", "175359.070000", "175359.073000", "175359.075000", "175359.078000", "175359.080000", "175439.021000", "175439.023000", "175439.026000", "175439.028000", "175439.031000", "175439.034000", "175439.036000", "175439.039000", "175439.041000", "175439.044000", "175439.046000", "175439.049000", "175439.051000", "175439.054000", "175439.056000", "175439.059000", "175439.061000", "175439.064000", "175439.067000", "175439.069000", "175439.072000", "175439.074000", "175439.077000", "175439.080000", "175439.082000", "175439.085000", "175519.018000", "175519.021000", "175519.023000", "175519.026000", "175519.029000", "175519.031000", "175519.034000", "175519.036000", "175519.039000", "175519.041000", "175519.044000", "175519.046000", "175519.049000", "175519.052000", "175519.054000", "175519.057000", "175519.059000", "175519.062000", "175519.064000", "175519.067000", "175519.069000", "175519.072000", "175519.075000", "175519.077000", "175519.080000", "175519.083000", "175519.085000", "175524.448000", "175524.450000", "175524.453000", "175524.456000"],
