{
  "AcquisitionMatrixPE": 104,
  "AcquisitionNumber": 1,
  "AcquisitionTime": "18:22:25.057500",
  "BandwidthPerPixelPhaseEncode": 17.17,
  "BaseResolution": 104,
  "BodyPartExamined": "BRAIN",
  "CoilCombinationMethod": "Sum of Squares",
  "ConsistencyInfo": "N4_VE11C_LATEST_20160120",
  "ConversionSoftware": "dcm2niix",
  "ConversionSoftwareVersion": "v1.0.20211006",
  "DerivedVendorReportedEchoSpacing": 0.000560011,
  "DeviceSerialNumber": "167006",
  "DwellTime": 2.1e-06,
  "EchoTime": 0.037,
  "EchoTrainLength": 104,
  "EffectiveEchoSpacing": 0.000560011,
  "FlipAngle": 52,
  "HeudiconvVersion": "0.11.3.post9+gc939bf8",
  "ImageComments": "Unaliased MB4/PE3/LB",
  "ImageOrientationPatientDICOM": [0.999942, -0.00923024, 0.00551796, 0.0106463, 0.922074, -0.386867],
  "ImageOrientationText": "Tra>Cor(-22.8)>Sag(0.1)",
  "ImageType": [
    "ORIGINAL",
    "PRIMARY",
    "M",
    "MB",
    "ND",
    "MOSAIC"
],
  "ImagingFrequency": 123.259,
  "InPlanePhaseEncodingDirectionDICOM": "COL",
  "InstitutionAddress": "Chemin Queen-Mary 4565,Montreal,District,CA,H3W 1W5",
  "InstitutionName": "IUGM",
  "InstitutionalDepartmentName": "Department",
  "MRAcquisitionType": "2D",
  "MagneticFieldStrength": 3,
  "Manufacturer": "Siemens",
  "ManufacturersModelName": "Prisma_fit",
  "MatrixCoilMode": "SENSE",
  "Modality": "MR",
  "MultibandAccelerationFactor": 4,
  "PartialFourier": 1,
  "PatientPosition": "HFS",
  "PercentPhaseFOV": 100,
  "PercentSampling": 100,
  "PhaseEncodingDirection": "j",
  "PhaseEncodingSteps": 104,
  "PhaseResolution": 1,
  "PixelBandwidth": 2290,
  "ProcedureStepDescription": "games^mario",
  "ProtocolName": "func_task-mario_run-05",
  "PulseSequenceDetails": "%CustomerSeq%\\cmrr_mbep2d_bold",
  "ReceiveCoilActiveElements": "HC1-7;NC1,2",
  "ReceiveCoilName": "HeadNeck_64",
  "ReconMatrixPE": 104,
  "RepetitionTime": 1.49,
  "SAR": 0.054836,
  "ScanOptions": "FS",
  "ScanningSequence": "EP",
  "SequenceName": "epfid2d1_104",
  "SequenceVariant": "SK\\SS",
  "SeriesDescription": "func_task-mario_run-05",
  "SeriesNumber": 22,
  "ShimSetting": [617, -7241, -8836, 395, 11, -318, 2, 23],
  "SliceThickness": 2,
  "SliceTiming": [0, 0.785, 0.0975, 0.8825, 0.1975, 0.98, 0.295, 1.0775, 0.3925, 1.175, 0.49, 1.275, 0.5875, 1.3725, 0.6875, 0, 0.785, 0.0975, 0.8825, 0.1975, 0.98, 0.295, 1.0775, 0.3925, 1.175, 0.49, 1.275, 0.5875, 1.3725, 0.6875, 0, 0.785, 0.0975, 0.8825, 0.1975, 0.98, 0.295, 1.0775, 0.3925, 1.175, 0.49, 1.275, 0.5875, 1.3725, 0.6875, 0, 0.785, 0.0975, 0.8825, 0.1975, 0.98, 0.295, 1.0775, 0.3925, 1.175, 0.49, 1.275, 0.5875, 1.3725, 0.6875],
  "SoftwareVersions": "syngo MR E11",
  "SpacingBetweenSlices": 2,
  "StationName": "MRC35049",
  "TaskName": "mario",
  "TotalReadoutTime": 0.0576811,
  "TxRefAmp": 264.393,
  "WipMemBlock": "91d6dc05-838f-44e0-8edc-d35c0ea435c7||Sequence: R017 ve11c/master r/75a17815+; Jun 28 2022 16:32:11 by eja",
  "dcmmeta_affine": [
    [-1.9998843669891357, 0.02129260264337063, 0.00303418911062181, 102.41984558105469],
    [0.018460489809513092, 1.8441483974456787, -0.7738061547279358, -61.12049865722656],
    [0.011035921052098274, 0.773733377456665, 1.84423828125, -66.43930053710938],
    [0.0, 0.0, 0.0, 1.0]
],
  "dcmmeta_reorient_transform": [
    [0.0, -1.0, 0.0, 103.0],
    [1.0, 0.0, 0.0, 0.0],
    [0.0, 0.0, 1.0, 0.0],
    [0.0, 0.0, 0.0, 1.0]
],
  "dcmmeta_shape": [104, 104, 60, 477],
  "dcmmeta_slice_dim": 2,
  "dcmmeta_version": 0.6,
  "global": {
    "const": {
      "AcquisitionMatrix": [104, 0, 0, 104],
      "AngioFlag": "N",
      "BitsAllocated": 16,
      "BitsStored": 16,
      "BodyPartExamined": "BRAIN",
      "Columns": 832,
      "EchoNumbers": 1,
      "EchoTime": 37.0,
      "EchoTrainLength": 104,
      "FlipAngle": 52.0,
      "HighBit": 15,
      "ImageOrientationPatient": [0.99994217567342, -0.0092302449765, 0.00551796041862, 0.01064630141312, 0.92207419156209, -0.3868666973537],
      "ImagePositionPatient": [-840.32139820478, -793.37717765833, 290.8771198331],
      "ImageType": [
        "ORIGINAL",
        "PRIMARY",
        "M",
        "MB",
        "ND",
        "MOSAIC"
],
      "ImagedNucleus": "1H",
      "ImagingFrequency": 123.258807,
      "InPlanePhaseEncodingDirection": "COL",
      "MRAcquisitionType": "2D",
      "MagneticFieldStrength": 3.0,
      "Manufacturer": "SIEMENS",
      "ManufacturerModelName": "Prisma_fit",
      "Modality": "MR",
      "NumberOfAverages": 1.0,
      "NumberOfPhaseEncodingSteps": 104,
      "PercentPhaseFieldOfView": 100.0,
      "PercentSampling": 100.0,
      "PerformedProcedureStepStartTime": "170427.378000",
      "PhotometricInterpretation": "MONOCHROME2",
      "PixelBandwidth": 2290.0,
      "PixelRepresentation": 0,
      "PixelSpacing": [2.0, 2.0],
      "ProtocolName": "func_task-mario_run-05",
      "RepetitionTime": 1490.0,
      "Rows": 832,
      "SAR": 0.05483600573583,
      "SamplesPerPixel": 1,
      "ScanOptions": "FS",
      "ScanningSequence": "EP",
      "SequenceName": "epfid2d1_104",
      "SequenceVariant": [
        "SK",
        "SS"
],
      "SeriesDescription": "func_task-mario_run-05",
      "SeriesNumber": 22,
      "SeriesTime": "182338.910000",
      "SliceLocation": -37.461861106055,
      "SliceThickness": 2.0,
      "SmallestImagePixelValue": 0,
      "SoftwareVersions": "syngo MR E11",
      "SpacingBetweenSlices": 2.0000000011334,
      "SpecificCharacterSet": "ISO_IR 100",
      "StudyID": "1",
      "StudyTime": "170427.321000",
      "TransmitCoilName": "Body",
      "VariableFlipAngleFlag": "N",
      "WindowCenterWidthExplanation": "Algo1",
      "dBdt": 0.0},
    "slices": {}
  },
  "time": {
    "samples": {
      "AcquisitionNumber": [1, 2, 3, 4, 5, 6, 7, 8, 9, 10, 11, 12, 13, 14, 15, 16, 17, 18, 19, 20, 21, 22, 23, 24, 25, 26, 27, 28, 29, 30, 31, 32, 33, 34, 35, 36, 37, 38, 39, 40, 41, 42, 43, 44, 45, 46, 47, 48, 49, 50, 51, 52, 53, 54, 55, 56, 57, 58, 59, 60, 61, 62, 63, 64, 65, 66, 67, 68, 69, 70, 71, 72, 73, 74, 75, 76, 77, 78, 79, 80, 81, 82, 83, 84, 85, 86, 87, 88, 89, 90, 91, 92, 93, 94, 95, 96, 97, 98, 99, 100, 101, 102, 103, 104, 105, 106, 107, 108, 109, 110, 111, 112, 113, 114, 115, 116, 117, 118, 119, 120, 121, 122, 123, 124, 125, 126, 127, 128, 129, 130, 131, 132, 133, 134, 135, 136, 137, 138, 139, 140, 141, 142, 143, 144, 145, 146, 147, 148, 149, 150, 151, 152, 153, 154, 155, 156, 157, 158, 159, 160, 161, 162, 163, 164, 165, 166, 167, 168, 169, 170, 171, 172, 173, 174, 175, 176, 177, 178, 179, 180, 181, 182, 183, 184, 185, 186, 187, 188, 189, 190, 191, 192, 193, 194, 195, 196, 197, 198, 199, 200, 201, 202, 203, 204, 205, 206, 207, 208, 209, 210, 211, 212, 213, 214, 215, 216, 217, 218, 219, 220, 221, 222, 223, 224, 225, 226, 227, 228, 229, 230, 231, 232, 233, 234, 235, 236, 237, 238, 239, 240, 241, 242, 243, 244, 245, 246, 247, 248, 249, 250, 251, 252, 253, 254, 255, 256, 257, 258, 259, 260, 261, 262, 263, 264, 265, 266, 267, 268, 269, 270, 271, 272, 273, 274, 275, 276, 277, 278, 279, 280, 281, 282, 283, 284, 285, 286, 287, 288, 289, 290, 291, 292, 293, 294, 295, 296, 297, 298, 299, 300, 301, 302, 303, 304, 305, 306, 307, 308, 309, 310, 311, 312, 313, 314, 315, 316, 317, 318, 319, 320, 321, 322, 323, 324, 325, 326, 327, 328, 329, 330, 331, 332, 333, 334, 335, 336, 337, 338, 339, 340, 341, 342, 343, 344, 345, 346, 347, 348, 349, 350, 351, 352, 353, 354, 355, 356, 357, 358, 359, 360, 361, 362, 363, 364, 365, 366, 367, 368, 369, 370, 371, 372, 373, 374, 375, 376, 377, 378, 379, 380, 381, 382, 383, 384, 385, 386, 387, 388, 389, 390, 391, 392, 393, 394, 395, 396, 397, 398, 399, 400, 401, 402, 403, 404, 405, 406, 407, 408, 409, 410, 411, 412, 413, 414, 415, 416, 417, 418, 419, 420, 421, 422, 423, 424, 425, 426, 427, 428, 429, 430, 431, 432, 433, 434, 435, 436, 437, 438, 439, 440, 441, 442, 443, 444, 445, 446, 447, 448, 449, 450, 451, 452, 453, 454, 455, 456, 457, 458, 459, 460, 461, 462, 463, 464, 465, 466, 467, 468, 469, 470, 471, 472, 473, 474, 475, 476, 477],
      "AcquisitionTime": ["182225.057500", "182226.547500", "182228.037500", "182229.527500", "182231.017500", "182232.507500", "182233.997500", "182235.487500", "182236.977500", "182238.467500", "182239.957500", "182241.447500", "182242.937500", "182244.427500", "182245.917500", "182247.407500", "182248.897500", "182250.387500", "182251.877500", "182253.367500", "182254.857500", "182256.347500", "182257.837500", "182259.327500", "182300.817500", "182302.307500", "182303.797500", "182305.287500", "182306.777500", "182308.267500", "182309.757500", "182311.247500", "182312.737500", "182314.227500", "182315.717500", "182317.207500", "182318.697500", "182320.187500", "182321.677500", "182323.167500", "182324.657500", "182326.147500", "182327.637500", "182329.127500", "182330.617500", "182332.107500", "182333.597500", "182335.087500", "182336.577500", "182338.067500", "182339.557500", "182341.047500", "182342.537500", "182344.027500", "182345.517500", "182347.007500", "182348.497500", "182349.987500", "182351.477500", "182352.967500", "182354.457500", "182355.947500", "182357.437500", "182358.927500", "182400.417500", "182401.907500", "182403.397500", "182404.887500", "182406.377500", "182407.867500", "182409.357500", "182410.847500", "182412.337500", "182413.827500", "182415.317500", "182416.807500", "182418.297500", "182419.787500", "182421.277500", "182422.767500", "182424.257500", "182425.747500", "182427.237500", "182428.727500", "182430.217500", "182431.707500", "182433.197500", "182434.687500", "182436.177500", "182437.667500", "182439.157500", "182440.647500", "182442.137500", "182443.627500", "182445.117500", "182446.607500", "182448.097500", "182449.587500", "182451.077500", "182452.567500", "182454.057500", "182455.547500", "182457.037500", "182458.527500", "182500.017500", "182501.507500", "182502.997500", "182504.487500", "182505.977500", "182507.467500", "182508.957500", "182510.447500", "182511.937500", "182513.427500", "182514.917500", "182516.407500", "182517.897500", "182519.387500", "182520.877500", "182522.367500", "182523.857500", "182525.347500", "182526.837500", "182528.327500", "182529.817500", "182531.307500", "182532.797500", "182534.287500", "182535.777500", "182537.267500", "182538.757500", "182540.247500", "182541.737500", "182543.227500", "182544.717500", "182546.207500", "182547.697500", "182549.187500", "182550.677500", "182552.167500", "182553.657500", "182555.147500", "182556.637500", "182558.127500", "182559.617500", "182601.107500", "182602.597500", "182604.087500", "182605.577500", "182607.067500", "182608.557500", "182610.047500", "182611.537500", "182613.027500", "182614.517500", "182616.007500", "182617.497500", "182618.987500", "182620.477500", "182621.967500", "182623.457500", "182624.947500", "182626.437500", "182627.927500", "182629.417500", "182630.907500", "182632.397500", "182633.887500", "182635.377500", "182636.867500", "182638.357500", "182639.847500", "182641.337500", "182642.827500", "182644.317500", "182645.807500", "182647.297500", "182648.787500", "182650.277500", "182651.767500", "182653.257500", "182654.747500", "182656.237500", "182657.727500", "182659.217500", "182700.707500", "182702.197500", "182703.687500", "182705.177500", "182706.667500", "182708.157500", "182709.647500", "182711.137500", "182712.627500", "182714.117500", "182715.607500", "182717.097500", "182718.587500", "182720.077500", "182721.567500", "182723.057500", "182724.547500", "182726.037500", "182727.527500", "182729.017500", "182730.507500", "182731.997500", "182733.487500", "182734.977500", "182736.467500", "182737.957500", "182739.447500", "182740.937500", "182742.427500", "182743.917500", "182745.407500", "182746.897500", "182748.387500", "182749.877500", "182751.367500", "182752.857500", "182754.347500", "182755.837500", "182757.327500", "182758.817500", "182800.307500", "182801.797500", "182803.287500", "182804.777500", "182806.267500", "182807.757500", "182809.247500", "182810.737500", "182812.227500", "182813.717500", "182815.207500", "182816.697500", "182818.187500", "182819.677500", "182821.167500", "182822.657500", "182824.147500", "182825.637500", "182827.127500", "182828.617500", "182830.107500", "182831.597500", "182833.087500", "182834.577500", "182836.067500", "182837.557500", "182839.047500", "182840.537500", "182842.027500", "182843.517500", "182845.007500", "182846.497500", "182847.987500", "182849.477500", "182850.967500", "182852.457500", "182853.947500", "182855.437500", "182856.927500", "182858.417500", "182859.907500", "182901.397500", "182902.887500", "182904.377500", "182905.867500", "182907.357500", "182908.847500", "182910.337500", "182911.827500", "182913.317500", "182914.807500", "182916.297500", "182917.787500", "182919.277500", "182920.767500", "182922.257500", "182923.747500", "182925.237500", "182926.727500", "182928.217500", "182929.707500", "182931.197500", "182932.687500", "182934.177500", "182935.667500", "182937.157500", "182938.647500", "182940.137500", "182941.627500", "182943.117500", "182944.607500", "182946.097500", "182947.587500", "182949.077500", "182950.567500", "182952.057500", "182953.547500", "182955.037500", "182956.527500", "182958.017500", "182959.507500", "183000.997500", "183002.487500", "183003.977500", "183005.467500", "183006.957500", "183008.447500", "183009.937500", "183011.427500", "183012.917500", "183014.407500", "183015.897500", "183017.387500", "183018.877500", "183020.367500", "183021.857500", "183023.347500", "183024.837500", "183026.327500", "183027.817500", "183029.307500", "183030.797500", "183032.287500", "183033.777500", "183035.267500", "183036.757500", "183038.247500", "183039.737500", "183041.227500", "183042.717500", "183044.207500", "183045.697500", "183047.187500", "183048.677500", "183050.167500", "183051.657500", "183053.147500", "183054.637500", "183056.127500", "183057.617500", "183059.107500", "183100.597500", "183102.087500", "183103.577500", "183105.067500", "183106.557500", "183108.047500", "183109.537500", "183111.027500", "183112.517500", "183114.007500", "183115.497500", "183116.987500", "183118.477500", "183119.967500", "183121.457500", "183122.947500", "183124.437500", "183125.927500", "183127.417500", "183128.907500", "183130.397500", "183131.887500", "183133.377500", "183134.867500", "183136.357500", "183137.847500", "183139.337500", "183140.827500", "183142.317500", "183143.807500", "183145.297500", "183146.787500", "183148.277500", "183149.767500", "183151.257500", "183152.747500", "183154.237500", "183155.727500", "183157.217500", "183158.707500", "183200.197500", "183201.687500", "183203.177500", "183204.667500", "183206.157500", "183207.647500", "183209.137500", "183210.627500", "183212.117500", "183213.607500", "183215.097500", "183216.587500", "183218.077500", "183219.567500", "183221.057500", "183222.547500", "183224.037500", "183225.527500", "183227.017500", "183228.507500", "183229.997500", "183231.487500", "183232.977500", "183234.467500", "183235.957500", "183237.447500", "183238.937500", "183240.427500", "183241.917500", "183243.407500", "183244.897500", "183246.387500", "183247.877500", "183249.367500", "183250.857500", "183252.347500", "183253.837500", "183255.327500", "183256.817500", "183258.307500", "183259.797500", "183301.287500", "183302.777500", "183304.267500", "183305.757500", "183307.247500", "183308.737500", "183310.227500", "183311.717500", "183313.207500", "183314.697500", "183316.187500", "183317.677500", "183319.167500", "183320.657500", "183322.147500", "183323.637500", "183325.127500", "183326.617500", "183328.107500", "183329.597500", "183331.087500", "183332.577500", "183334.067500", "183335.557500", "183337.047500", "183338.537500", "183340.027500", "183341.517500", "183343.007500", "183344.497500", "183345.987500", "183347.477500", "183348.967500", "183350.457500", "183351.947500", "183353.437500", "183354.927500", "183356.417500", "183357.907500", "183359.397500", "183400.887500", "183402.377500", "183403.867500", "183405.357500", "183406.847500", "183408.337500", "183409.827500", "183411.317500", "183412.807500", "183414.297500"],
      "ContentTime": ["182338.913000", "182338.923000", "182338.927000", "182338.930000", "182338.933000", "182338.937000", "182338.940000", "182338.943000", "182338.947000", "182338.950000", "182338.953000", "182338.957000", "182338.960000", "182338.963000", "182338.967000", "182338.970000", "182338.974000", "182338.977000", "182338.980000", "182338.984000", "182338.987000", "182338.991000", "182338.994000", "182338.997000", "182339.001000", "182358.868000", "182358.872000", "182358.875000", "182358.879000", "182358.882000", "182358.885000", "182358.889000", "182358.892000", "182358.895000", "182358.899000", "182358.902000", "182358.905000", "182358.909000", "182358.912000", "182358.915000", "182358.919000", "182358.922000", "182358.925000", "182358.929000", "182358.932000", "182418.867000", "182418.871000", "182418.874000", "182418.877000", "182418.881000", "182418.884000", "182418.900000", "182418.903000", "182418.906000", "182418.910000", "182418.913000", "182418.916000", "182418.920000", "182418.923000", "182418.927000", "182418.930000", "182418.933000", "182418.937000", "182418.941000", "182418.954000", "182418.957000", "182438.867000", "182438.871000", "182438.874000", "182438.878000", "182438.881000", "182438.884000", "182438.888000", "182438.891000", "182438.894000", "182438.898000", "182438.901000", "182438.904000", "182438.908000", "182438.911000", "182438.915000", "182438.918000", "182438.921000", "182438.925000", "182438.928000", "182438.932000", "182518.867000", "182518.871000", "182518.875000", "182518.878000", "182518.881000", "182518.885000", "182518.888000", "182518.892000", "182518.895000", "182518.906000", "182518.909000", "182518.913000", "182518.916000", "182518.919000", "182518.923000", "182518.926000", "182518.930000", "182518.933000", "182518.936000", "182518.940000", "182518.943000", "182518.947000", "182518.950000", "182518.953000", "182518.957000", "182518.960000", "182518.964000", "182518.967000", "182518.970000", "182518.974000", "182558.868000", "182558.872000", "182558.875000", "182558.879000", "182558.882000", "182558.886000", "182558.889000", "182558.892000", "182558.896000", "182558.899000", "182558.903000", "182558.906000", "182558.909000", "182558.913000", "182558.916000", "182558.920000", "182558.923000", "182558.926000", "182558.930000", "182558.933000", "182558.937000", "182558.940000", "182558.944000", "182558.947000", "182558.950000", "182558.954000", "182638.867000", "182638.871000", "182638.875000", "182638.878000", "182638.881000", "182638.885000", "182638.888000", "182638.903000", "182638.906000", "182638.910000", "182638.913000", "182638.916000", "182638.920000", "182638.923000", "182638.926000", "182638.930000", "182638.933000", "182638.937000", "182638.940000", "182638.943000", "182638.947000", "182638.957000", "182638.961000", "182638.964000", "182638.967000", "182638.971000", "182638.974000", "182718.867000", "182718.871000", "182718.875000", "182718.878000", "182718.881000", "182718.885000", "182718.888000", "182718.891000", "182718.895000", "182718.898000", "182718.902000", "182718.905000", "182718.909000", "182718.912000", "182718.915000", "182718.919000", "182718.922000", "182718.925000", "182718.929000", "182718.932000", "182718.935000", "182718.939000", "182718.942000", "182718.946000", "182718.949000", "182718.952000", "182718.956000", "182758.869000", "182758.872000", "182758.876000", "182758.879000", "182758.882000", "182758.886000", "182758.889000", "182758.892000", "182758.896000", "182758.899000", "182758.903000", "182758.906000", "182758.909000", "182758.913000", "182758.916000", "182758.919000", "182758.923000", "182758.926000", "182758.929000", "182758.933000", "182758.936000", "182758.940000", "182758.943000", "182758.946000", "182758.956000", "182758.959000", "182758.962000", "182838.867000", "182838.871000", "182838.874000", "182838.878000", "182838.881000", "182838.885000", "182838.888000", "182838.891000", "182838.895000", "182838.898000", "182838.901000", "182838.905000", "182838.908000", "182838.912000", "182838.915000", "182838.918000", "182838.922000", "182838.925000", "182838.928000", "182838.932000", "182838.936000", "182838.939000", "182838.942000", "182838.946000", "182838.949000", "182838.952000", "182838.972000", "182918.867000", "182918.871000", "182918.875000", "182918.878000", "182918.881000", "182918.885000", "182918.888000", "182918.891000", "182918.895000", "182918.898000", "182918.902000", "182918.905000", "182918.909000", "182918.912000", "182918.915000", "182918.919000", "182918.922000", "182918.925000", "182918.929000", "182918.932000", "182918.936000", "182918.939000", "182918.942000", "182918.946000", "182918.949000", "182918.952000", "182918.956000", "182958.867000", "182958.877000", "182958.881000", "182958.884000", "182958.887000", "182958.891000", "182958.894000", "182958.898000", "182958.901000", "182958.905000", "182958.908000", "182958.911000", "182958.915000", "182958.918000", "182958.922000", "182958.925000", "182958.928000", "182958.932000", "182958.935000", "182958.939000", "182958.942000", "182958.946000", "182958.949000", "182958.952000", "182958.956000", "182958.959000", "182958.963000", "183038.868000", "183038.872000", "183038.875000", "183038.879000", "183038.883000", "183038.886000", "183038.890000", "183038.896000", "183038.899000", "183038.903000", "183038.906000", "183038.910000", "183038.913000", "183038.916000", "183038.920000", "183038.923000", "183038.927000", "183038.930000", "183038.933000", "183038.937000", "183038.941000", "183038.944000", "183038.947000", "183038.951000", "183038.954000", "183038.958000", "183118.867000", "183118.871000", "183118.875000", "183118.878000", "183118.882000", "183118.885000", "183118.888000", "183118.892000", "183118.919000", "183118.923000", "183118.926000", "183118.930000", "183118.933000", "183118.937000", "183118.940000", "183118.943000", "183118.947000", "183118.950000", "183118.954000", "183118.957000", "183118.961000", "183118.964000", "183118.967000", "183118.971000", "183118.974000", "183118.978000", "183118.981000", "183158.867000", "183158.871000", "183158.875000", "183158.878000", "183158.882000", "183158.885000", "183158.888000", "183158.892000", "183158.895000", "183158.899000", "183158.902000", "183158.906000", "183158.909000", "183158.913000", "183158.916000", "183158.919000", "183158.923000", "183158.926000", "183158.930000", "183158.933000", "183158.936000", "183158.940000", "183158.943000", "183158.947000", "183158.950000", "183158.953000", "183158.957000", "183238.868000", "183238.872000", "183238.875000", "183238.879000", "183238.882000", "183238.885000", "183238.889000", "183238.892000", "183238.896000", "183238.899000", "183238.902000", "183238.906000", "183238.909000", "183238.912000", "183238.916000", "183238.919000", "183238.923000", "183238.926000", "183238.929000", "183238.933000", "183238.936000", "183238.939000", "183238.943000", "183238.946000", "183238.949000", "183238.953000", "183238.956000", "183318.868000", "183318.871000", "183318.875000", "183318.878000", "183318.882000", "183318.885000", "183318.888000", "183318.892000", "183318.895000", "183318.898000", "183318.902000", "183318.905000", "183318.909000", "183318.912000", "183318.915000", "183318.919000", "183318.922000", "183318.925000", "183318.929000", "183318.932000", "183318.957000", "183318.960000", "183318.963000", "183318.967000", "183318.970000", "183318.973000", "183318.977000", "183358.867000", "183358.871000", "183358.875000", "183358.878000", "183358.882000", "183358.885000", "183358.888000", "183358.892000", "183358.895000", "183358.898000", "183358.902000", "183358.905000", "183358.909000", "183358.912000", "183358.915000", "183358.919000", "183358.922000", "183358.926000", "183358.929000", "183358.932000", "183358.936000", "183358.939000", "183358.943000", "183358.946000", "183358.949000", "183358.953000", "183358.956000", "183416.968000", "183416.971000", "183416.975000", "183416.978000", "183416.981000", "183416.985000", "183416.988000", "183416.991000", "183416.995000", "183416.998000", "183417.003000", "183417.006000"],
