{
  "AcquisitionMatrixPE": 104,
  "AcquisitionNumber": 1,
  "AcquisitionTime": "15:49:21.560000",
  "BandwidthPerPixelPhaseEncode": 17.17,
  "BaseResolution": 104,
  "BodyPartExamined": "BRAIN",
  "CoilCombinationMethod": "Sum of Squares",
  "ConsistencyInfo": "N4_VE11C_LATEST_20160120",
  "ConversionSoftware": "dcm2niix",
  "ConversionSoftwareVersion": "v1.0.20211006",
  "DerivedVendorReportedEchoSpacing": 0.000560011,
  "DeviceSerialNumber": "167006",
  "DwellTime": 2.1e-06,
  "EchoTime": 0.037,
  "EchoTrainLength": 104,
  "EffectiveEchoSpacing": 0.000560011,
  "FlipAngle": 52,
  "HeudiconvVersion": "0.10.0",
  "ImageComments": "Unaliased MB4/PE3/LB",
  "ImageOrientationPatientDICOM": [0.999727, -0.0218106, -0.00840679, 0.018323, 0.954541, -0.297516],
  "ImageOrientationText": "Tra>Cor(-17.3)>Sag(-0.8)",
  "ImageType": [
    "ORIGINAL",
    "PRIMARY",
    "M",
    "MB",
    "ND",
    "MOSAIC"
],
  "ImagingFrequency": 123.259,
  "InPlanePhaseEncodingDirectionDICOM": "COL",
  "InstitutionAddress": "Chemin Queen-Mary 4565,Montreal,District,CA,H3W 1W5",
  "InstitutionName": "IUGM",
  "InstitutionalDepartmentName": "Department",
  "MRAcquisitionType": "2D",
  "MagneticFieldStrength": 3,
  "Manufacturer": "Siemens",
  "ManufacturersModelName": "Prisma_fit",
  "MatrixCoilMode": "SENSE",
  "Modality": "MR",
  "MultibandAccelerationFactor": 4,
  "PartialFourier": 1,
  "PatientPosition": "HFS",
  "PercentPhaseFOV": 100,
  "PercentSampling": 100,
  "PhaseEncodingDirection": "j",
  "PhaseEncodingSteps": 104,
  "PhaseResolution": 1,
  "PixelBandwidth": 2290,
  "ProcedureStepDescription": "games^mario",
  "ProtocolName": "func_task-mario_run-01",
  "PulseSequenceDetails": "%CustomerSeq%\\cmrr_mbep2d_bold",
  "ReceiveCoilActiveElements": "HC1-7;NC1,2",
  "ReceiveCoilName": "HeadNeck_64",
  "ReconMatrixPE": 104,
  "RepetitionTime": 1.49,
  "SAR": 0.0602473,
  "ScanOptions": "FS",
  "ScanningSequence": "EP",
  "SequenceName": "epfid2d1_104",
  "SequenceVariant": "SK\\SS",
  "SeriesDescription": "func_task-mario_run-01",
  "SeriesNumber": 16,
  "ShimSetting": [626, -7255, -8813, 618, 11, -179, -61, -25],
  "SliceThickness": 2,
  "SliceTiming": [0, 0.785, 0.1, 0.8825, 0.1975, 0.98, 0.295, 1.08, 0.3925, 1.1775, 0.49, 1.275, 0.59, 1.3725, 0.6875, 0, 0.785, 0.1, 0.8825, 0.1975, 0.98, 0.295, 1.08, 0.3925, 1.1775, 0.49, 1.275, 0.59, 1.3725, 0.6875, 0, 0.785, 0.1, 0.8825, 0.1975, 0.98, 0.295, 1.08, 0.3925, 1.1775, 0.49, 1.275, 0.59, 1.3725, 0.6875, 0, 0.785, 0.1, 0.8825, 0.1975, 0.98, 0.295, 1.08, 0.3925, 1.1775, 0.49, 1.275, 0.59, 1.3725, 0.6875],
  "SoftwareVersions": "syngo MR E11",
  "SpacingBetweenSlices": 2,
  "StationName": "MRC35049",
  "TaskName": "mario",
  "TotalReadoutTime": 0.0576811,
  "TxRefAmp": 274.799,
  "WipMemBlock": "45a04633-aff9-4a82-9806-75cc7df0ef67||Sequence: R016 ve11c/master r/e634e98; Dec 19 2017 11:00:25 by eja",
  "dcmmeta_affine": [
    [-1.9994535446166992, 0.03664599731564522, -0.029027294367551804, 105.67976379394531],
    [0.04362128674983978, 1.9090816974639893, -0.594562292098999, -69.26200866699219],
    [-0.016813576221466064, 0.5950329303741455, 1.909359335899353, -59.85161590576172],
    [0.0, 0.0, 0.0, 1.0]
],
  "dcmmeta_reorient_transform": [
    [0.0, -1.0, 0.0, 103.0],
    [1.0, 0.0, 0.0, 0.0],
    [0.0, 0.0, 1.0, 0.0],
    [0.0, 0.0, 0.0, 1.0]
],
  "dcmmeta_shape": [104, 104, 60, 482],
  "dcmmeta_slice_dim": 2,
  "dcmmeta_version": 0.6,
  "global": {
    "const": {
      "AcquisitionMatrix": [104, 0, 0, 104],
      "AngioFlag": "N",
      "BitsAllocated": 16,
      "BitsStored": 16,
      "BodyPartExamined": "BRAIN",
      "Columns": 832,
      "EchoNumbers": 1,
      "EchoTime": 37.0,
      "EchoTrainLength": 104,
      "FlipAngle": 52.0,
      "HighBit": 15,
      "ImageOrientationPatient": [0.9997267735625, -0.0218106428808, -0.0084067877003, 0.01832299795327, 0.95454084177878, -0.2975164686572],
      "ImagePositionPatient": [-850.59453401992, -806.40098845005, 224.14890543876],
      "ImageType": [
        "ORIGINAL",
        "PRIMARY",
        "M",
        "MB",
        "ND",
        "MOSAIC"
],
      "ImagedNucleus": "1H",
      "ImagingFrequency": 123.258851,
      "InPlanePhaseEncodingDirection": "COL",
      "MRAcquisitionType": "2D",
      "MagneticFieldStrength": 3.0,
      "Manufacturer": "SIEMENS",
      "ManufacturerModelName": "Prisma_fit",
      "Modality": "MR",
      "NumberOfAverages": 1.0,
      "NumberOfPhaseEncodingSteps": 104,
      "PercentPhaseFieldOfView": 100.0,
      "PercentSampling": 100.0,
      "PerformedProcedureStepStartTime": "152842.689000",
      "PhotometricInterpretation": "MONOCHROME2",
      "PixelBandwidth": 2290.0,
      "PixelRepresentation": 0,
      "PixelSpacing": [2.0, 2.0],
      "ProtocolName": "func_task-mario_run-01",
      "RepetitionTime": 1490.0,
      "Rows": 832,
      "SAR": 0.06024729609641,
      "SamplesPerPixel": 1,
      "ScanOptions": "FS",
      "ScanningSequence": "EP",
      "SequenceName": "epfid2d1_104",
      "SequenceVariant": [
        "SK",
        "SS"
],
      "SeriesDescription": "func_task-mario_run-01",
      "SeriesNumber": 16,
      "SeriesTime": "155051.016000",
      "SliceLocation": -38.082632309513,
      "SliceThickness": 2.0,
      "SmallestImagePixelValue": 0,
      "SoftwareVersions": "syngo MR E11",
      "SpacingBetweenSlices": 1.9999999863285,
      "SpecificCharacterSet": "ISO_IR 100",
      "StudyID": "1",
      "StudyTime": "152842.641000",
      "TransmitCoilName": "Body",
      "VariableFlipAngleFlag": "N",
      "WindowCenterWidthExplanation": "Algo1",
      "dBdt": 0.0},
    "slices": {}
  },
  "time": {
    "samples": {
      "AcquisitionNumber": [1, 2, 3, 4, 5, 6, 7, 8, 9, 10, 11, 12, 13, 14, 15, 16, 17, 18, 19, 20, 21, 22, 23, 24, 25, 26, 27, 28, 29, 30, 31, 32, 33, 34, 35, 36, 37, 38, 39, 40, 41, 42, 43, 44, 45, 46, 47, 48, 49, 50, 51, 52, 53, 54, 55, 56, 57, 58, 59, 60, 61, 62, 63, 64, 65, 66, 67, 68, 69, 70, 71, 72, 73, 74, 75, 76, 77, 78, 79, 80, 81, 82, 83, 84, 85, 86, 87, 88, 89, 90, 91, 92, 93, 94, 95, 96, 97, 98, 99, 100, 101, 102, 103, 104, 105, 106, 107, 108, 109, 110, 111, 112, 113, 114, 115, 116, 117, 118, 119, 120, 121, 122, 123, 124, 125, 126, 127, 128, 129, 130, 131, 132, 133, 134, 135, 136, 137, 138, 139, 140, 141, 142, 143, 144, 145, 146, 147, 148, 149, 150, 151, 152, 153, 154, 155, 156, 157, 158, 159, 160, 161, 162, 163, 164, 165, 166, 167, 168, 169, 170, 171, 172, 173, 174, 175, 176, 177, 178, 179, 180, 181, 182, 183, 184, 185, 186, 187, 188, 189, 190, 191, 192, 193, 194, 195, 196, 197, 198, 199, 200, 201, 202, 203, 204, 205, 206, 207, 208, 209, 210, 211, 212, 213, 214, 215, 216, 217, 218, 219, 220, 221, 222, 223, 224, 225, 226, 227, 228, 229, 230, 231, 232, 233, 234, 235, 236, 237, 238, 239, 240, 241, 242, 243, 244, 245, 246, 247, 248, 249, 250, 251, 252, 253, 254, 255, 256, 257, 258, 259, 260, 261, 262, 263, 264, 265, 266, 267, 268, 269, 270, 271, 272, 273, 274, 275, 276, 277, 278, 279, 280, 281, 282, 283, 284, 285, 286, 287, 288, 289, 290, 291, 292, 293, 294, 295, 296, 297, 298, 299, 300, 301, 302, 303, 304, 305, 306, 307, 308, 309, 310, 311, 312, 313, 314, 315, 316, 317, 318, 319, 320, 321, 322, 323, 324, 325, 326, 327, 328, 329, 330, 331, 332, 333, 334, 335, 336, 337, 338, 339, 340, 341, 342, 343, 344, 345, 346, 347, 348, 349, 350, 351, 352, 353, 354, 355, 356, 357, 358, 359, 360, 361, 362, 363, 364, 365, 366, 367, 368, 369, 370, 371, 372, 373, 374, 375, 376, 377, 378, 379, 380, 381, 382, 383, 384, 385, 386, 387, 388, 389, 390, 391, 392, 393, 394, 395, 396, 397, 398, 399, 400, 401, 402, 403, 404, 405, 406, 407, 408, 409, 410, 411, 412, 413, 414, 415, 416, 417, 418, 419, 420, 421, 422, 423, 424, 425, 426, 427, 428, 429, 430, 431, 432, 433, 434, 435, 436, 437, 438, 439, 440, 441, 442, 443, 444, 445, 446, 447, 448, 449, 450, 451, 452, 453, 454, 455, 456, 457, 458, 459, 460, 461, 462, 463, 464, 465, 466, 467, 468, 469, 470, 471, 472, 473, 474, 475, 476, 477, 478, 479, 480, 481, 482],
      "AcquisitionTime": ["154921.560000", "154923.050000", "154924.540000", "154926.030000", "154927.520000", "154929.010000", "154930.500000", "154931.990000", "154933.480000", "154934.970000", "154936.460000", "154937.950000", "154939.440000", "154940.930000", "154942.420000", "154943.910000", "154945.400000", "154946.890000", "154948.380000", "154949.870000", "154951.360000", "154952.850000", "154954.340000", "154955.830000", "154957.320000", "154958.810000", "155000.300000", "155001.790000", "155003.280000", "155004.770000", "155006.260000", "155007.750000", "155009.240000", "155010.730000", "155012.220000", "155013.710000", "155015.200000", "155016.690000", "155018.180000", "155019.670000", "155021.160000", "155022.650000", "155024.140000", "155025.630000", "155027.120000", "155028.610000", "155030.100000", "155031.590000", "155033.080000", "155034.570000", "155036.060000", "155037.550000", "155039.040000", "155040.530000", "155042.020000", "155043.510000", "155045.000000", "155046.490000", "155047.980000", "155049.470000", "155050.960000", "155052.450000", "155053.940000", "155055.430000", "155056.920000", "155058.410000", "155059.900000", "155101.390000", "155102.880000", "155104.370000", "155105.860000", "155107.350000", "155108.840000", "155110.330000", "155111.820000", "155113.310000", "155114.800000", "155116.290000", "155117.780000", "155119.270000", "155120.760000", "155122.250000", "155123.740000", "155125.230000", "155126.720000", "155128.210000", "155129.700000", "155131.190000", "155132.680000", "155134.170000", "155135.660000", "155137.150000", "155138.640000", "155140.130000", "155141.620000", "155143.110000", "155144.600000", "155146.090000", "155147.580000", "155149.070000", "155150.560000", "155152.050000", "155153.540000", "155155.030000", "155156.520000", "155158.010000", "155159.500000", "155200.990000", "155202.480000", "155203.970000", "155205.460000", "155206.950000", "155208.440000", "155209.930000", "155211.420000", "155212.910000", "155214.400000", "155215.890000", "155217.380000", "155218.870000", "155220.360000", "155221.850000", "155223.340000", "155224.830000", "155226.320000", "155227.810000", "155229.300000", "155230.790000", "155232.280000", "155233.770000", "155235.260000", "155236.750000", "155238.240000", "155239.730000", "155241.220000", "155242.710000", "155244.200000", "155245.690000", "155247.180000", "155248.670000", "155250.160000", "155251.650000", "155253.140000", "155254.630000", "155256.120000", "155257.610000", "155259.100000", "155300.590000", "155302.080000", "155303.570000", "155305.060000", "155306.550000", "155308.040000", "155309.530000", "155311.020000", "155312.510000", "155314.000000", "155315.490000", "155316.980000", "155318.470000", "155319.960000", "155321.450000", "155322.940000", "155324.430000", "155325.920000", "155327.410000", "155328.900000", "155330.390000", "155331.880000", "155333.370000", "155334.860000", "155336.350000", "155337.840000", "155339.330000", "155340.820000", "155342.310000", "155343.800000", "155345.290000", "155346.780000", "155348.270000", "155349.760000", "155351.250000", "155352.740000", "155354.230000", "155355.720000", "155357.210000", "155358.700000", "155400.190000", "155401.680000", "155403.170000", "155404.660000", "155406.150000", "155407.640000", "155409.130000", "155410.620000", "155412.110000", "155413.600000", "155415.090000", "155416.580000", "155418.070000", "155419.560000", "155421.050000", "155422.540000", "155424.030000", "155425.520000", "155427.010000", "155428.500000", "155429.990000", "155431.480000", "155432.970000", "155434.460000", "155435.950000", "155437.440000", "155438.930000", "155440.420000", "155441.910000", "155443.400000", "155444.890000", "155446.380000", "155447.870000", "155449.360000", "155450.850000", "155452.340000", "155453.830000", "155455.320000", "155456.810000", "155458.300000", "155459.790000", "155501.280000", "155502.770000", "155504.260000", "155505.750000", "155507.240000", "155508.730000", "155510.220000", "155511.710000", "155513.200000", "155514.690000", "155516.180000", "155517.670000", "155519.160000", "155520.650000", "155522.140000", "155523.630000", "155525.120000", "155526.610000", "155528.100000", "155529.590000", "155531.080000", "155532.570000", "155534.060000", "155535.550000", "155537.040000", "155538.530000", "155540.020000", "155541.510000", "155543.000000", "155544.490000", "155545.980000", "155547.470000", "155548.960000", "155550.450000", "155551.940000", "155553.430000", "155554.920000", "155556.410000", "155557.900000", "155559.390000", "155600.880000", "155602.370000", "155603.860000", "155605.350000", "155606.840000", "155608.330000", "155609.820000", "155611.310000", "155612.800000", "155614.290000", "155615.780000", "155617.270000", "155618.760000", "155620.250000", "155621.740000", "155623.230000", "155624.720000", "155626.210000", "155627.700000", "155629.190000", "155630.680000", "155632.170000", "155633.660000", "155635.150000", "155636.640000", "155638.130000", "155639.620000", "155641.110000", "155642.600000", "155644.090000", "155645.580000", "155647.070000", "155648.560000", "155650.050000", "155651.540000", "155653.030000", "155654.520000", "155656.010000", "155657.500000", "155658.990000", "155700.480000", "155701.970000", "155703.460000", "155704.950000", "155706.440000", "155707.930000", "155709.420000", "155710.910000", "155712.400000", "155713.890000", "155715.380000", "155716.870000", "155718.360000", "155719.850000", "155721.340000", "155722.830000", "155724.320000", "155725.810000", "155727.300000", "155728.790000", "155730.280000", "155731.770000", "155733.260000", "155734.750000", "155736.240000", "155737.730000", "155739.220000", "155740.710000", "155742.200000", "155743.690000", "155745.180000", "155746.670000", "155748.160000", "155749.650000", "155751.140000", "155752.630000", "155754.120000", "155755.610000", "155757.100000", "155758.590000", "155800.080000", "155801.570000", "155803.060000", "155804.550000", "155806.040000", "155807.530000", "155809.020000", "155810.510000", "155812.000000", "155813.490000", "155814.980000", "155816.470000", "155817.960000", "155819.450000", "155820.940000", "155822.430000", "155823.920000", "155825.410000", "155826.900000", "155828.390000", "155829.880000", "155831.370000", "155832.860000", "155834.350000", "155835.840000", "155837.330000", "155838.820000", "155840.310000", "155841.800000", "155843.290000", "155844.780000", "155846.270000", "155847.760000", "155849.250000", "155850.740000", "155852.230000", "155853.720000", "155855.210000", "155856.700000", "155858.190000", "155859.680000", "155901.170000", "155902.660000", "155904.150000", "155905.640000", "155907.130000", "155908.620000", "155910.110000", "155911.600000", "155913.090000", "155914.580000", "155916.070000", "155917.560000", "155919.050000", "155920.540000", "155922.030000", "155923.520000", "155925.010000", "155926.500000", "155927.990000", "155929.480000", "155930.970000", "155932.460000", "155933.950000", "155935.440000", "155936.930000", "155938.420000", "155939.910000", "155941.400000", "155942.890000", "155944.380000", "155945.870000", "155947.360000", "155948.850000", "155950.340000", "155951.830000", "155953.320000", "155954.810000", "155956.300000", "155957.790000", "155959.280000", "160000.770000", "160002.260000", "160003.750000", "160005.240000", "160006.730000", "160008.220000", "160009.710000", "160011.200000", "160012.690000", "160014.180000", "160015.670000", "160017.160000", "160018.650000", "160020.140000", "160021.630000", "160023.120000", "160024.610000", "160026.100000", "160027.590000", "160029.080000", "160030.570000", "160032.060000", "160033.550000", "160035.040000", "160036.530000", "160038.020000", "160039.510000", "160041.000000", "160042.490000", "160043.980000", "160045.470000", "160046.960000", "160048.450000", "160049.940000", "160051.430000", "160052.920000", "160054.410000", "160055.900000", "160057.390000", "160058.880000", "160100.370000", "160101.860000", "160103.350000", "160104.840000", "160106.330000", "160107.820000", "160109.310000", "160110.800000", "160112.290000", "160113.780000", "160115.270000", "160116.760000", "160118.250000"],
      "ContentTime": ["155051.019000", "155051.023000", "155051.026000", "155051.030000", "155051.033000", "155051.036000", "155051.040000", "155051.043000", "155051.046000", "155051.050000", "155051.053000", "155051.056000", "155051.060000", "155051.067000", "155051.070000", "155051.074000", "155051.077000", "155051.080000", "155051.084000", "155051.087000", "155051.090000", "155051.094000", "155051.097000", "155051.105000", "155051.108000", "155051.111000", "155051.115000", "155051.118000", "155051.121000", "155051.125000", "155051.128000", "155051.131000", "155051.135000", "155051.138000", "155051.141000", "155051.144000", "155110.984000", "155110.988000", "155110.991000", "155110.995000", "155111.000000", "155111.003000", "155111.007000", "155111.010000", "155111.013000", "155111.017000", "155111.020000", "155111.024000", "155111.027000", "155111.031000", "155111.034000", "155111.037000", "155111.041000", "155111.044000", "155111.047000", "155111.051000", "155130.983000", "155130.987000", "155130.990000", "155130.993000", "155130.997000", "155131.001000", "155131.004000", "155131.008000", "155131.011000", "155131.014000", "155131.018000", "155131.021000", "155131.024000", "155131.028000", "155131.031000", "155131.034000", "155131.038000", "155131.041000", "155131.044000", "155131.048000", "155150.984000", "155150.994000", "155150.997000", "155151.001000", "155151.004000", "155151.008000", "155151.011000", "155151.014000", "155151.018000", "155151.021000", "155151.024000", "155151.028000", "155151.031000", "155151.034000", "155151.038000", "155151.041000", "155151.044000", "155151.049000", "155151.052000", "155151.056000", "155230.984000", "155230.988000", "155230.991000", "155230.995000", "155230.998000", "155231.002000", "155231.005000", "155231.009000", "155231.012000", "155231.016000", "155231.019000", "155231.022000", "155231.025000", "155231.029000", "155231.032000", "155231.036000", "155231.039000", "155231.056000", "155231.059000", "155231.062000", "155231.066000", "155231.069000", "155231.085000", "155231.088000", "155231.092000", "155231.095000", "155231.099000", "155231.102000", "155231.105000", "155231.109000", "155250.984000", "155250.987000", "155250.991000", "155250.994000", "155250.998000", "155251.001000", "155251.004000", "155251.008000", "155251.011000", "155251.015000", "155251.018000", "155251.022000", "155251.025000", "155251.028000", "155330.983000", "155330.987000", "155330.991000", "155330.994000", "155330.997000", "155331.001000", "155331.004000", "155331.008000", "155331.011000", "155331.015000", "155331.018000", "155331.022000", "155331.026000", "155331.030000", "155331.033000", "155331.037000", "155331.040000", "155331.043000", "155331.047000", "155331.050000", "155331.053000", "155331.057000", "155331.060000", "155331.063000", "155331.067000", "155331.070000", "155410.984000", "155410.988000", "155410.991000", "155410.995000", "155410.998000", "155411.001000", "155411.005000", "155411.008000", "155411.011000", "155411.015000", "155411.018000", "155411.021000", "155411.025000", "155411.028000", "155411.031000", "155411.035000", "155411.038000", "155411.042000", "155411.045000", "155411.048000", "155411.052000", "155411.055000", "155411.058000", "155411.061000", "155411.065000", "155411.068000", "155411.071000", "155450.984000", "155450.988000", "155450.991000", "155450.995000", "155450.998000", "155451.002000", "155451.006000", "155451.009000", "155451.012000", "155451.016000", "155451.019000", "155451.022000", "155451.026000", "155451.029000", "155451.032000", "155451.036000", "155451.039000", "155451.042000", "155451.046000", "155451.049000", "155451.052000", "155451.056000", "155451.059000", "155451.073000", "155451.077000", "155451.080000", "155451.083000", "155530.983000", "155530.987000", "155530.990000", "155530.994000", "155530.997000", "155531.001000", "155531.015000", "155531.018000", "155531.021000", "155531.025000", "155531.028000", "155531.031000", "155531.035000", "155531.038000", "155531.041000", "155531.045000", "155531.048000", "155531.051000", "155531.055000", "155531.067000", "155531.070000", "155531.073000", "155531.077000", "155531.080000", "155531.083000", "155531.087000", "155531.090000", "155610.983000", "155610.987000", "155610.990000", "155610.999000", "155611.003000", "155611.006000", "155611.009000", "155611.013000", "155611.016000", "155611.020000", "155611.023000", "155611.026000", "155611.030000", "155611.033000", "155611.036000", "155611.040000", "155611.043000", "155611.047000", "155611.050000", "155611.053000", "155611.057000", "155611.060000", "155611.063000", "155611.067000", "155611.070000", "155611.073000", "155611.077000", "155650.984000", "155650.988000", "155650.991000", "155650.995000", "155650.998000", "155651.001000", "155651.005000", "155651.008000", "155651.011000", "155651.015000", "155651.018000", "155651.021000", "155651.025000", "155651.028000", "155651.031000", "155651.035000", "155651.038000", "155651.041000", "155651.045000", "155651.048000", "155651.052000", "155651.055000", "155651.058000", "155651.061000", "155651.065000", "155651.068000", "155651.071000", "155730.983000", "155730.987000", "155730.990000", "155730.994000", "155730.997000", "155731.001000", "155731.005000", "155731.008000", "155731.011000", "155731.015000", "155731.018000", "155731.021000", "155731.025000", "155731.028000", "155731.031000", "155731.034000", "155731.038000", "155731.041000", "155731.044000", "155731.048000", "155731.051000", "155731.054000", "155731.058000", "155731.061000", "155731.064000", "155731.068000", "155731.071000", "155810.984000", "155810.987000", "155810.991000", "155810.995000", "155810.998000", "155811.002000", "155811.005000", "155811.008000", "155811.012000", "155811.015000", "155811.018000", "155811.022000", "155811.025000", "155811.028000", "155811.032000", "155811.035000", "155811.038000", "155811.042000", "155811.045000", "155811.049000", "155811.052000", "155811.056000", "155811.059000", "155811.062000", "155811.066000", "155811.069000", "155850.984000", "155850.988000", "155850.991000", "155850.995000", "155850.998000", "155851.001000", "155851.005000", "155851.008000", "155851.011000", "155851.015000", "155851.018000", "155851.021000", "155851.025000", "155851.028000", "155851.031000", "155851.035000", "155851.038000", "155851.041000", "155851.045000", "155851.048000", "155851.053000", "155851.056000", "155851.059000", "155851.063000", "155851.066000", "155851.069000", "155851.073000", "155930.984000", "155930.988000", "155930.991000", "155930.995000", "155930.998000", "155931.002000", "155931.006000", "155931.009000", "155931.013000", "155931.027000", "155931.030000", "155931.033000", "155931.037000", "155931.040000", "155931.043000", "155931.047000", "155931.050000", "155931.053000", "155931.057000", "155931.060000", "155931.063000", "155931.067000", "155931.070000", "155931.074000", "155931.077000", "155931.080000", "155931.084000", "160010.983000", "160010.987000", "160010.996000", "160010.999000", "160011.002000", "160011.006000", "160011.009000", "160011.012000", "160011.016000", "160011.019000", "160011.022000", "160011.026000", "160011.029000", "160011.032000", "160011.036000", "160011.039000", "160011.042000", "160011.046000", "160011.049000", "160011.052000", "160011.056000", "160011.059000", "160011.062000", "160011.066000", "160011.069000", "160011.073000", "160011.076000", "160050.983000", "160050.987000", "160050.990000", "160050.994000", "160050.997000", "160051.000000", "160051.004000", "160051.007000", "160051.010000", "160051.014000", "160051.017000", "160051.020000", "160051.024000", "160051.027000", "160051.031000", "160051.034000", "160051.037000", "160051.041000", "160051.044000", "160051.047000", "160051.051000", "160051.054000", "160051.057000", "160051.061000", "160051.064000", "160051.067000", "160051.071000", "160120.501000", "160120.507000", "160120.510000", "160120.514000", "160120.517000", "160120.521000", "160120.524000", "160120.527000", "160120.531000", "160120.534000", "160120.537000", "160120.541000", "160120.544000", "160120.562000", "160120.565000", "160120.569000", "160120.572000", "160120.576000", "160120.579000", "160120.582000"],
