{
  "AcquisitionMatrixPE": 104,
  "AcquisitionNumber": 1,
  "AcquisitionTime": "15:32:33.060000",
  "BandwidthPerPixelPhaseEncode": 17.17,
  "BaseResolution": 104,
  "BodyPartExamined": "BRAIN",
  "CoilCombinationMethod": "Sum of Squares",
  "ConsistencyInfo": "N4_VE11C_LATEST_20160120",
  "ConversionSoftware": "dcm2niix",
  "ConversionSoftwareVersion": "v1.0.20211006",
  "DerivedVendorReportedEchoSpacing": 0.000560011,
  "DeviceSerialNumber": "167006",
  "DwellTime": 2.1e-06,
  "EchoTime": 0.037,
  "EchoTrainLength": 104,
  "EffectiveEchoSpacing": 0.000560011,
  "FlipAngle": 52,
  "HeudiconvVersion": "0.10.0",
  "ImageComments": "Unaliased MB4/PE3/LB",
  "ImageOrientationPatientDICOM": [0.999727, -0.0218106, -0.00840679, 0.018323, 0.954541, -0.297516],
  "ImageOrientationText": "Tra>Cor(-17.3)>Sag(-0.8)",
  "ImageType": [
    "ORIGINAL",
    "PRIMARY",
    "M",
    "MB",
    "ND",
    "MOSAIC"
],
  "ImagingFrequency": 123.259,
  "InPlanePhaseEncodingDirectionDICOM": "COL",
  "InstitutionAddress": "Chemin Queen-Mary 4565,Montreal,District,CA,H3W 1W5",
  "InstitutionName": "IUGM",
  "InstitutionalDepartmentName": "Department",
  "MRAcquisitionType": "2D",
  "MagneticFieldStrength": 3,
  "Manufacturer": "Siemens",
  "ManufacturersModelName": "Prisma_fit",
  "MatrixCoilMode": "SENSE",
  "Modality": "MR",
  "MultibandAccelerationFactor": 4,
  "PartialFourier": 1,
  "PatientPosition": "HFS",
  "PercentPhaseFOV": 100,
  "PercentSampling": 100,
  "PhaseEncodingDirection": "j",
  "PhaseEncodingSteps": 104,
  "PhaseResolution": 1,
  "PixelBandwidth": 2290,
  "ProcedureStepDescription": "games^mario",
  "ProtocolName": "func_task-mario_run-01",
  "PulseSequenceDetails": "%CustomerSeq%\\cmrr_mbep2d_bold",
  "ReceiveCoilActiveElements": "HC1-7;NC1,2",
  "ReceiveCoilName": "HeadNeck_64",
  "ReconMatrixPE": 104,
  "RepetitionTime": 1.49,
  "SAR": 0.0602473,
  "ScanOptions": "FS",
  "ScanningSequence": "EP",
  "SequenceName": "epfid2d1_104",
  "SequenceVariant": "SK\\SS",
  "SeriesDescription": "func_task-mario_run-01",
  "SeriesNumber": 10,
  "ShimSetting": [626, -7255, -8813, 618, 11, -179, -61, -25],
  "SliceThickness": 2,
  "SliceTiming": [0, 0.785, 0.0975, 0.8825, 0.1975, 0.98, 0.295, 1.0775, 0.3925, 1.1775, 0.49, 1.275, 0.5875, 1.3725, 0.6875, 0, 0.785, 0.0975, 0.8825, 0.1975, 0.98, 0.295, 1.0775, 0.3925, 1.1775, 0.49, 1.275, 0.5875, 1.3725, 0.6875, 0, 0.785, 0.0975, 0.8825, 0.1975, 0.98, 0.295, 1.0775, 0.3925, 1.1775, 0.49, 1.275, 0.5875, 1.3725, 0.6875, 0, 0.785, 0.0975, 0.8825, 0.1975, 0.98, 0.295, 1.0775, 0.3925, 1.1775, 0.49, 1.275, 0.5875, 1.3725, 0.6875],
  "SoftwareVersions": "syngo MR E11",
  "SpacingBetweenSlices": 2,
  "StationName": "MRC35049",
  "TaskName": "mario",
  "TotalReadoutTime": 0.0576811,
  "TxRefAmp": 274.799,
  "WipMemBlock": "9a47885e-4d54-4552-ba98-3dfb21a48971||Sequence: R016 ve11c/master r/e634e98; Dec 19 2017 11:00:25 by eja",
  "dcmmeta_affine": [
    [-1.9994535446166992, 0.03664599731564522, -0.029027294367551804, 105.67976379394531],
    [0.04362128674983978, 1.9090816974639893, -0.594562292098999, -69.26200866699219],
    [-0.016813576221466064, 0.5950329303741455, 1.909359335899353, -59.85161590576172],
    [0.0, 0.0, 0.0, 1.0]
],
  "dcmmeta_reorient_transform": [
    [0.0, -1.0, 0.0, 103.0],
    [1.0, 0.0, 0.0, 0.0],
    [0.0, 0.0, 1.0, 0.0],
    [0.0, 0.0, 0.0, 1.0]
],
  "dcmmeta_shape": [104, 104, 60, 142],
  "dcmmeta_slice_dim": 2,
  "dcmmeta_version": 0.6,
  "global": {
    "const": {
      "AcquisitionMatrix": [104, 0, 0, 104],
      "AngioFlag": "N",
      "BitsAllocated": 16,
      "BitsStored": 16,
      "BodyPartExamined": "BRAIN",
      "Columns": 832,
      "EchoNumbers": 1,
      "EchoTime": 37.0,
      "EchoTrainLength": 104,
      "FlipAngle": 52.0,
      "HighBit": 15,
      "ImageOrientationPatient": [0.9997267735625, -0.0218106428808, -0.0084067877003, 0.01832299795327, 0.95454084177878, -0.2975164686572],
      "ImagePositionPatient": [-850.59453401992, -806.40098845005, 224.14890543876],
      "ImageType": [
        "ORIGINAL",
        "PRIMARY",
        "M",
        "MB",
        "ND",
        "MOSAIC"
],
      "ImagedNucleus": "1H",
      "ImagingFrequency": 123.258847,
      "InPlanePhaseEncodingDirection": "COL",
      "MRAcquisitionType": "2D",
      "MagneticFieldStrength": 3.0,
      "Manufacturer": "SIEMENS",
      "ManufacturerModelName": "Prisma_fit",
      "Modality": "MR",
      "NumberOfAverages": 1.0,
      "NumberOfPhaseEncodingSteps": 104,
      "PercentPhaseFieldOfView": 100.0,
      "PercentSampling": 100.0,
      "PerformedProcedureStepStartTime": "152842.689000",
      "PhotometricInterpretation": "MONOCHROME2",
      "PixelBandwidth": 2290.0,
      "PixelRepresentation": 0,
      "PixelSpacing": [2.0, 2.0],
      "ProtocolName": "func_task-mario_run-01",
      "RepetitionTime": 1490.0,
      "Rows": 832,
      "SAR": 0.06024729609641,
      "SamplesPerPixel": 1,
      "ScanOptions": "FS",
      "ScanningSequence": "EP",
      "SequenceName": "epfid2d1_104",
      "SequenceVariant": [
        "SK",
        "SS"
],
      "SeriesDescription": "func_task-mario_run-01",
      "SeriesNumber": 10,
      "SeriesTime": "153347.926000",
      "SliceLocation": -38.082632309513,
      "SliceThickness": 2.0,
      "SmallestImagePixelValue": 0,
      "SoftwareVersions": "syngo MR E11",
      "SpacingBetweenSlices": 1.9999999863285,
      "SpecificCharacterSet": "ISO_IR 100",
      "StudyID": "1",
      "StudyTime": "152842.641000",
      "TransmitCoilName": "Body",
      "VariableFlipAngleFlag": "N",
      "WindowCenterWidthExplanation": "Algo1",
      "dBdt": 0.0},
    "slices": {}
  },
  "time": {
    "samples": {
      "AcquisitionNumber": [1, 2, 3, 4, 5, 6, 7, 8, 9, 10, 11, 12, 13, 14, 15, 16, 17, 18, 19, 20, 21, 22, 23, 24, 25, 26, 27, 28, 29, 30, 31, 32, 33, 34, 35, 36, 37, 38, 39, 40, 41, 42, 43, 44, 45, 46, 47, 48, 49, 50, 51, 52, 53, 54, 55, 56, 57, 58, 59, 60, 61, 62, 63, 64, 65, 66, 67, 68, 69, 70, 71, 72, 73, 74, 75, 76, 77, 78, 79, 80, 81, 82, 83, 84, 85, 86, 87, 88, 89, 90, 91, 92, 93, 94, 95, 96, 97, 98, 99, 100, 101, 102, 103, 104, 105, 106, 107, 108, 109, 110, 111, 112, 113, 114, 115, 116, 117, 118, 119, 120, 121, 122, 123, 124, 125, 126, 127, 128, 129, 130, 131, 132, 133, 134, 135, 136, 137, 138, 139, 140, 141, 142],
      "AcquisitionTime": ["153233.060000", "153234.550000", "153236.040000", "153237.530000", "153239.020000", "153240.510000", "153242.000000", "153243.490000", "153244.980000", "153246.470000", "153247.960000", "153249.450000", "153250.940000", "153252.430000", "153253.920000", "153255.410000", "153256.900000", "153258.390000", "153259.880000", "153301.370000", "153302.860000", "153304.350000", "153305.840000", "153307.330000", "153308.820000", "153310.310000", "153311.800000", "153313.290000", "153314.780000", "153316.270000", "153317.760000", "153319.250000", "153320.740000", "153322.230000", "153323.720000", "153325.210000", "153326.700000", "153328.190000", "153329.680000", "153331.170000", "153332.660000", "153334.150000", "153335.640000", "153337.130000", "153338.620000", "153340.110000", "153341.600000", "153343.090000", "153344.580000", "153346.070000", "153347.560000", "153349.050000", "153350.540000", "153352.030000", "153353.520000", "153355.010000", "153356.500000", "153357.990000", "153359.480000", "153400.970000", "153402.460000", "153403.950000", "153405.440000", "153406.930000", "153408.420000", "153409.910000", "153411.400000", "153412.890000", "153414.380000", "153415.870000", "153417.360000", "153418.850000", "153420.340000", "153421.830000", "153423.320000", "153424.810000", "153426.300000", "153427.790000", "153429.280000", "153430.770000", "153432.260000", "153433.750000", "153435.240000", "153436.730000", "153438.220000", "153439.710000", "153441.200000", "153442.690000", "153444.180000", "153445.670000", "153447.160000", "153448.650000", "153450.140000", "153451.630000", "153453.120000", "153454.610000", "153456.100000", "153457.590000", "153459.080000", "153500.570000", "153502.060000", "153503.550000", "153505.040000", "153506.530000", "153508.020000", "153509.510000", "153511.000000", "153512.490000", "153513.980000", "153515.470000", "153516.960000", "153518.450000", "153519.940000", "153521.430000", "153522.920000", "153524.410000", "153525.900000", "153527.390000", "153528.880000", "153530.370000", "153531.860000", "153533.350000", "153534.840000", "153536.330000", "153537.820000", "153539.310000", "153540.800000", "153542.290000", "153543.780000", "153545.270000", "153546.760000", "153548.250000", "153549.740000", "153551.230000", "153552.720000", "153554.210000", "153555.700000", "153557.190000", "153558.680000", "153600.170000", "153601.660000", "153603.150000"],
      "ContentTime": ["153347.929000", "153347.933000", "153347.936000", "153347.939000", "153347.943000", "153347.946000", "153347.949000", "153347.953000", "153347.956000", "153347.959000", "153347.963000", "153347.966000", "153347.969000", "153347.973000", "153347.976000", "153347.979000", "153347.991000", "153347.994000", "153347.997000", "153348.002000", "153407.927000", "153407.931000", "153407.934000", "153407.938000", "153407.941000", "153407.944000", "153407.948000", "153407.951000", "153407.959000", "153407.962000", "153407.966000", "153407.969000", "153407.973000", "153407.976000", "153407.979000", "153407.983000", "153407.986000", "153407.990000", "153407.993000", "153407.996000", "153427.926000", "153427.930000", "153427.934000", "153427.937000", "153427.940000", "153427.944000", "153427.947000", "153427.950000", "153427.954000", "153427.957000", "153427.960000", "153427.963000", "153427.974000", "153427.977000", "153427.980000", "153427.983000", "153427.987000", "153427.990000", "153427.993000", "153427.997000", "153447.926000", "153447.930000", "153447.933000", "153447.936000", "153447.940000", "153447.943000", "153447.947000", "153447.950000", "153447.953000", "153447.957000", "153447.960000", "153447.963000", "153447.967000", "153447.970000", "153447.973000", "153447.977000", "153447.980000", "153447.983000", "153447.987000", "153447.990000", "153507.926000", "153507.930000", "153507.934000", "153507.938000", "153507.941000", "153507.944000", "153507.948000", "153507.951000", "153507.955000", "153507.958000", "153507.962000", "153507.965000", "153507.968000", "153507.972000", "153507.975000", "153507.978000", "153507.981000", "153507.985000", "153507.988000", "153507.991000", "153547.926000", "153547.944000", "153547.947000", "153547.950000", "153547.954000", "153547.957000", "153547.960000", "153547.963000", "153547.967000", "153547.970000", "153547.973000", "153547.977000", "153547.980000", "153547.984000", "153547.987000", "153547.990000", "153547.997000", "153548.000000", "153548.004000", "153548.007000", "153548.010000", "153548.014000", "153548.017000", "153548.020000", "153548.024000", "153548.027000", "153548.031000", "153548.034000", "153548.037000", "153548.041000", "153606.076000", "153606.080000", "153606.083000", "153606.087000", "153606.090000", "153606.094000", "153606.097000", "153606.100000", "153606.104000", "153606.107000", "153606.110000", "153606.114000"],
      "InstanceCreationTime": ["153347.929000", "153347.933000", "153347.936000", "153347.939000", "153347.943000", "153347.946000", "153347.949000", "153347.953000", "153347.956000", "153347.959000", "153347.963000", "153347.966000", "153347.969000", "153347.973000", "153347.976000", "153347.979000", "153347.991000", "153347.994000", "153347.997000", "153348.002000", "153407.927000", "153407.931000", "153407.934000", "153407.938000", "153407.941000", "153407.944000", "153407.948000", "153407.951000", "153407.959000", "153407.962000", "153407.966000", "153407.969000", "153407.973000", "153407.976000", "153407.979000", "153407.983000", "153407.986000", "153407.990000", "153407.993000", "153407.996000", "153427.926000", "153427.930000", "153427.934000", "153427.937000", "153427.940000", "153427.944000", "153427.947000", "153427.950000", "153427.954000", "153427.957000", "153427.960000", "153427.963000", "153427.974000", "153427.977000", "153427.980000", "153427.983000", "153427.987000", "153427.990000", "153427.993000", "153427.997000", "153447.926000", "153447.930000", "153447.933000", "153447.936000", "153447.940000", "153447.943000", "153447.947000", "153447.950000", "153447.953000", "153447.957000", "153447.960000", "153447.963000", "153447.967000", "153447.970000", "153447.973000", "153447.977000", "153447.980000", "153447.983000", "153447.987000", "153447.990000", "153507.926000", "153507.930000", "153507.934000", "153507.938000", "153507.941000", "153507.944000", "153507.948000", "153507.951000", "153507.955000", "153507.958000", "153507.962000", "153507.965000", "153507.968000", "153507.972000", "153507.975000", "153507.978000", "153507.981000", "153507.985000", "153507.988000", "153507.991000", "153547.926000", "153547.944000", "153547.947000", "153547.950000", "153547.954000", "153547.957000", "153547.960000", "153547.963000", "153547.967000", "153547.970000", "153547.973000", "153547.977000", "153547.980000", "153547.984000", "153547.987000", "153547.990000", "153547.997000", "153548.000000", "153548.004000", "153548.007000", "153548.010000", "153548.014000", "153548.017000", "153548.020000", "153548.024000", "153548.027000", "153548.031000", "153548.034000", "153548.037000", "153548.041000", "153606.076000", "153606.080000", "153606.083000", "153606.087000", "153606.090000", "153606.094000", "153606.097000", "153606.100000", "153606.104000", "153606.107000", "153606.110000", "153606.114000"],
      "InstanceNumber": [1, 2, 3, 4, 5, 6, 7, 8, 9, 10, 11, 12, 13, 14, 15, 16, 17, 18, 19, 20, 21, 22, 23, 24, 25, 26, 27, 28, 29, 30, 31, 32, 33, 34, 35, 36, 37, 38, 39, 40, 41, 42, 43, 44, 45, 46, 47, 48, 49, 50, 51, 52, 53, 54, 55, 56, 57, 58, 59, 60, 61, 62, 63, 64, 65, 66, 67, 68, 69, 70, 71, 72, 73, 74, 75, 76, 77, 78, 79, 80, 81, 82, 83, 84, 85, 86, 87, 88, 89, 90, 91, 92, 93, 94, 95, 96, 97, 98, 99, 100, 101, 102, 103, 104, 105, 106, 107, 108, 109, 110, 111, 112, 113, 114, 115, 116, 117, 118, 119, 120, 121, 122, 123, 124, 125, 126, 127, 128, 129, 130, 131, 132, 133, 134, 135, 136, 137, 138, 139, 140, 141, 142],
      "LargestImagePixelValue": [43987, 43349, 42568, 42312, 42255, 41144, 42150, 41127, 41391, 42027, 40828, 40956, 41245, 41482, 41488, 41635, 41814, 41662, 41958, 41958, 41693, 41830, 42361, 41110, 41295, 41366, 41161, 41752, 42468, 41492, 42571, 41527, 41699, 41977, 41693, 41997, 41639, 41680, 41914, 41744, 41769, 42729, 40296, 41953, 42856, 41186, 40782, 41464, 41632, 41588, 41837, 42179, 41143, 41610, 41427, 40967, 41368, 41683, 41572, 41598, 41189, 41560, 41464, 41503, 41570, 41649, 41966, 42001, 42383, 42234, 41951, 41574, 42566, 41640, 41720, 41398, 41634, 41340, 41187, 42086, 41004, 40933, 41435, 41557, 40886, 40956, 39484, 38915, 39372, 39876, 40717, 40797, 40369, 40956, 41066, 40289, 40314, 40403, 40554, 40870, 40859, 40717, 40074, 40774, 40465, 39515, 40605, 40194, 40524, 39769, 40041, 39901, 40418, 40021, 40137, 40235, 40700, 40222, 40491, 40641, 41202, 40465, 40411, 40613, 39786, 39407, 40812, 40572, 39364, 40244, 40247, 40215, 39997, 39706, 39551, 39481, 40083, 39612, 40563, 40513, 40219, 40156],
      "WindowCenter": [10282.0, 10247.0, 10248.0, 10255.0, 10285.0, 10299.0, 10327.0, 10320.0, 10328.0, 10363.0, 10302.0, 10340.0, 10320.0, 10318.0, 10281.0, 10254.0, 10236.0, 10223.0, 10235.0, 10233.0, 10251.0, 10244.0, 10281.0, 10196.0, 10230.0, 10249.0, 10234.0, 10215.0, 10230.0, 10199.0, 10235.0, 10246.0, 10257.0, 10259.0, 10246.0, 10238.0, 10224.0, 10255.0, 10274.0, 10282.0, 10283.0, 10312.0, 10337.0, 10265.0, 10317.0, 10288.0, 10298.0, 10272.0, 10266.0, 10232.0, 10222.0, 10247.0, 10197.0, 10219.0, 10222.0, 10216.0, 10217.0, 10215.0, 10208.0, 10213.0, 10224.0, 10229.0, 10231.0, 10238.0, 10245.0, 10273.0, 10279.0, 10305.0, 10333.0, 10330.0, 10310.0, 10276.0, 10308.0, 10280.0, 10297.0, 10265.0, 10275.0, 10253.0, 10244.0, 10253.0, 10254.0, 10237.0, 10278.0, 10269.0, 10270.0, 10255.0, 10212.0, 10204.0, 10212.0, 10198.0, 10185.0, 10181.0, 10195.0, 10200.0, 10229.0, 10229.0, 10256.0, 10238.0, 10255.0, 10257.0, 10256.0, 10247.0, 10264.0, 10279.0, 10260.0, 10243.0, 10275.0, 10255.0, 10227.0, 10205.0, 10204.0, 10157.0, 10138.0, 10131.0, 10114.0, 10122.0, 10174.0, 10195.0, 10204.0, 10194.0, 10204.0, 10228.0, 10236.0, 10251.0, 10257.0, 10274.0, 10280.0, 10275.0, 10239.0, 10246.0, 10231.0, 10225.0, 10200.0, 10193.0, 10193.0, 10211.0, 10216.0, 10214.0, 10288.0, 10226.0, 10260.0, 10257.0],
      "WindowWidth": [22221.0, 22100.0, 22078.0, 22077.0, 22140.0, 22170.0, 22229.0, 22210.0, 22226.0, 22311.0, 22167.0, 22251.0, 22200.0, 22201.0, 22115.0, 22052.0, 22010.0, 21984.0, 22014.0, 22006.0, 22045.0, 22029.0, 22127.0, 21922.0, 21998.0, 22044.0, 22010.0, 21964.0, 22001.0, 21930.0, 22012.0, 22038.0, 22061.0, 22067.0, 22039.0, 22022.0, 21985.0, 22054.0, 22102.0, 22118.0, 22121.0, 22189.0, 22268.0, 22084.0, 22189.0, 22127.0, 22154.0, 22091.0, 22076.0, 22000.0, 21977.0, 22040.0, 21924.0, 21968.0, 21977.0, 21969.0, 21974.0, 21968.0, 21953.0, 21958.0, 21987.0, 21995.0, 22000.0, 22013.0, 22028.0, 22095.0, 22107.0, 22169.0, 22238.0, 22233.0, 22185.0, 22105.0, 22182.0, 22126.0, 22161.0, 22078.0, 22103.0, 22052.0, 22033.0, 22053.0, 22059.0, 22021.0, 22116.0, 22091.0, 22095.0, 22064.0, 21970.0, 21952.0, 21969.0, 21932.0, 21898.0, 21892.0, 21922.0, 21931.0, 21999.0, 21999.0, 22064.0, 22018.0, 22057.0, 22067.0, 22063.0, 22043.0, 22085.0, 22119.0, 22077.0, 22040.0, 22113.0, 22065.0, 21993.0, 21946.0, 21939.0, 21837.0, 21791.0, 21777.0, 21741.0, 21754.0, 21871.0, 21924.0, 21941.0, 21917.0, 21936.0, 21998.0, 22014.0, 22045.0, 22063.0, 22111.0, 22114.0, 22104.0, 22024.0, 22036.0, 22007.0, 21994.0, 21935.0, 21921.0, 21921.0, 21966.0, 21975.0, 21978.0, 22165.0, 22004.0, 22074.0, 22067.0]
    },
    "slices": {}
  }
}