{
  "AcquisitionMatrixPE": 104,
  "AcquisitionNumber": 1,
  "AcquisitionTime": "15:32:33.060000",
  "BandwidthPerPixelPhaseEncode": 17.17,
  "BaseResolution": 104,
  "BodyPartExamined": "BRAIN",
  "CoilCombinationMethod": "Sum of Squares",
  "ConsistencyInfo": "N4_VE11C_LATEST_20160120",
  "ConversionSoftware": "dcm2niix",
  "ConversionSoftwareVersion": "v1.0.20211006",
  "DerivedVendorReportedEchoSpacing": 0.000560011,
  "DeviceSerialNumber": "167006",
  "DwellTime": 2.1e-06,
  "EchoTime": 0.037,
  "EchoTime1": 0.037,
  "EchoTime2": 0.001,
  "EchoTrainLength": 104,
  "EffectiveEchoSpacing": 0.000560011,
  "FlipAngle": 52,
  "HeudiconvVersion": "0.10.0",
  "ImageComments": "Unaliased MB4/PE3/LB",
  "ImageOrientationPatientDICOM": [0.999727, -0.0218106, -0.00840679, 0.018323, 0.954541, -0.297516],
  "ImageOrientationText": "Tra>Cor(-17.3)>Sag(-0.8)",
  "ImageType": [
    "ORIGINAL",
    "PRIMARY",
    "P",
    "MB",
    "ND",
    "MOSAIC",
    "PHASE"
],
  "ImagingFrequency": 123.259,
  "InPlanePhaseEncodingDirectionDICOM": "COL",
  "InstitutionAddress": "Chemin Queen-Mary 4565,Montreal,District,CA,H3W 1W5",
  "InstitutionName": "IUGM",
  "InstitutionalDepartmentName": "Department",
  "MRAcquisitionType": "2D",
  "MagneticFieldStrength": 3,
  "Manufacturer": "Siemens",
  "ManufacturersModelName": "Prisma_fit",
  "MatrixCoilMode": "SENSE",
  "Modality": "MR",
  "MultibandAccelerationFactor": 4,
  "PartialFourier": 1,
  "PatientPosition": "HFS",
  "PercentPhaseFOV": 100,
  "PercentSampling": 100,
  "PhaseEncodingDirection": "j",
  "PhaseEncodingSteps": 104,
  "PhaseResolution": 1,
  "PixelBandwidth": 2290,
  "ProcedureStepDescription": "games^mario",
  "ProtocolName": "func_task-mario_run-01",
  "PulseSequenceDetails": "%CustomerSeq%\\cmrr_mbep2d_bold",
  "ReceiveCoilActiveElements": "HC1-7;NC1,2",
  "ReceiveCoilName": "HeadNeck_64",
  "ReconMatrixPE": 104,
  "RepetitionTime": 1.49,
  "SAR": 0.0602473,
  "ScanOptions": "FS",
  "ScanningSequence": "EP",
  "SequenceName": "epfid2d1_104",
  "SequenceVariant": "SK\\SS",
  "SeriesDescription": "func_task-mario_run-01",
  "SeriesNumber": 11,
  "ShimSetting": [626, -7255, -8813, 618, 11, -179, -61, -25],
  "SliceThickness": 2,
  "SliceTiming": [0, 0.785, 0.0975, 0.8825, 0.1975, 0.98, 0.295, 1.0775, 0.3925, 1.1775, 0.49, 1.275, 0.5875, 1.3725, 0.6875, 0, 0.785, 0.0975, 0.8825, 0.1975, 0.98, 0.295, 1.0775, 0.3925, 1.1775, 0.49, 1.275, 0.5875, 1.3725, 0.6875, 0, 0.785, 0.0975, 0.8825, 0.1975, 0.98, 0.295, 1.0775, 0.3925, 1.1775, 0.49, 1.275, 0.5875, 1.3725, 0.6875, 0, 0.785, 0.0975, 0.8825, 0.1975, 0.98, 0.295, 1.0775, 0.3925, 1.1775, 0.49, 1.275, 0.5875, 1.3725, 0.6875],
  "SoftwareVersions": "syngo MR E11",
  "SpacingBetweenSlices": 2,
  "StationName": "MRC35049",
  "TaskName": "mario",
  "TotalReadoutTime": 0.0576811,
  "TxRefAmp": 274.799,
  "WipMemBlock": "9a47885e-4d54-4552-ba98-3dfb21a48971||Sequence: R016 ve11c/master r/e634e98; Dec 19 2017 11:00:25 by eja",
  "dcmmeta_affine": [
    [-1.9994535446166992, 0.03664599731564522, -0.029027294367551804, 105.67976379394531],
    [0.04362128674983978, 1.9090816974639893, -0.594562292098999, -69.26200866699219],
    [-0.016813576221466064, 0.5950329303741455, 1.909359335899353, -59.85161590576172],
    [0.0, 0.0, 0.0, 1.0]
],
  "dcmmeta_reorient_transform": [
    [0.0, -1.0, 0.0, 103.0],
    [1.0, 0.0, 0.0, 0.0],
    [0.0, 0.0, 1.0, 0.0],
    [0.0, 0.0, 0.0, 1.0]
],
  "dcmmeta_shape": [104, 104, 60, 142],
  "dcmmeta_slice_dim": 2,
  "dcmmeta_version": 0.6,
  "global": {
    "const": {
      "AcquisitionMatrix": [104, 0, 0, 104],
      "AngioFlag": "N",
      "BitsAllocated": 16,
      "BitsStored": 16,
      "BodyPartExamined": "BRAIN",
      "Columns": 832,
      "EchoNumbers": 1,
      "EchoTime": 37.0,
      "EchoTrainLength": 104,
      "FlipAngle": 52.0,
      "HighBit": 15,
      "ImageOrientationPatient": [0.9997267735625, -0.0218106428808, -0.0084067877003, 0.01832299795327, 0.95454084177878, -0.2975164686572],
      "ImagePositionPatient": [-850.59453401992, -806.40098845005, 224.14890543876],
      "ImageType": [
        "ORIGINAL",
        "PRIMARY",
        "P",
        "MB",
        "ND",
        "MOSAIC"
],
      "ImagedNucleus": "1H",
      "ImagingFrequency": 123.258847,
      "InPlanePhaseEncodingDirection": "COL",
      "LargestImagePixelValue": 4095,
      "MRAcquisitionType": "2D",
      "MagneticFieldStrength": 3.0,
      "Manufacturer": "SIEMENS",
      "ManufacturerModelName": "Prisma_fit",
      "Modality": "MR",
      "NumberOfAverages": 1.0,
      "NumberOfPhaseEncodingSteps": 104,
      "PercentPhaseFieldOfView": 100.0,
      "PercentSampling": 100.0,
      "PerformedProcedureStepStartTime": "152842.689000",
      "PhotometricInterpretation": "MONOCHROME2",
      "PixelBandwidth": 2290.0,
      "PixelRepresentation": 0,
      "PixelSpacing": [2.0, 2.0],
      "ProtocolName": "func_task-mario_run-01",
      "RepetitionTime": 1490.0,
      "RescaleIntercept": -4096.0,
      "RescaleSlope": 2.0,
      "RescaleType": "US",
      "Rows": 832,
      "SAR": 0.06024729609641,
      "SamplesPerPixel": 1,
      "ScanOptions": "FS",
      "ScanningSequence": "EP",
      "SequenceName": "epfid2d1_104",
      "SequenceVariant": [
        "SK",
        "SS"
],
      "SeriesDescription": "func_task-mario_run-01",
      "SeriesNumber": 11,
      "SeriesTime": "153348.038000",
      "SliceLocation": -38.082632309513,
      "SliceThickness": 2.0,
      "SmallestImagePixelValue": 0,
      "SoftwareVersions": "syngo MR E11",
      "SpacingBetweenSlices": 1.9999999863285,
      "SpecificCharacterSet": "ISO_IR 100",
      "StudyID": "1",
      "StudyTime": "152842.641000",
      "TransmitCoilName": "Body",
      "VariableFlipAngleFlag": "N",
      "WindowCenterWidthExplanation": "Algo1",
      "dBdt": 0.0},
    "slices": {}
  },
  "time": {
    "samples": {
      "AcquisitionNumber": [1, 2, 3, 4, 5, 6, 7, 8, 9, 10, 11, 12, 13, 14, 15, 16, 17, 18, 19, 20, 21, 22, 23, 24, 25, 26, 27, 28, 29, 30, 31, 32, 33, 34, 35, 36, 37, 38, 39, 40, 41, 42, 43, 44, 45, 46, 47, 48, 49, 50, 51, 52, 53, 54, 55, 56, 57, 58, 59, 60, 61, 62, 63, 64, 65, 66, 67, 68, 69, 70, 71, 72, 73, 74, 75, 76, 77, 78, 79, 80, 81, 82, 83, 84, 85, 86, 87, 88, 89, 90, 91, 92, 93, 94, 95, 96, 97, 98, 99, 100, 101, 102, 103, 104, 105, 106, 107, 108, 109, 110, 111, 112, 113, 114, 115, 116, 117, 118, 119, 120, 121, 122, 123, 124, 125, 126, 127, 128, 129, 130, 131, 132, 133, 134, 135, 136, 137, 138, 139, 140, 141, 142],
      "AcquisitionTime": ["153233.060000", "153234.550000", "153236.040000", "153237.530000", "153239.020000", "153240.510000", "153242.000000", "153243.490000", "153244.980000", "153246.470000", "153247.960000", "153249.450000", "153250.940000", "153252.430000", "153253.920000", "153255.410000", "153256.900000", "153258.390000", "153259.880000", "153301.370000", "153302.860000", "153304.350000", "153305.840000", "153307.330000", "153308.820000", "153310.310000", "153311.800000", "153313.290000", "153314.780000", "153316.270000", "153317.760000", "153319.250000", "153320.740000", "153322.230000", "153323.720000", "153325.210000", "153326.700000", "153328.190000", "153329.680000", "153331.170000", "153332.660000", "153334.150000", "153335.640000", "153337.130000", "153338.620000", "153340.110000", "153341.600000", "153343.090000", "153344.580000", "153346.070000", "153347.560000", "153349.050000", "153350.540000", "153352.030000", "153353.520000", "153355.010000", "153356.500000", "153357.990000", "153359.480000", "153400.970000", "153402.460000", "153403.950000", "153405.440000", "153406.930000", "153408.420000", "153409.910000", "153411.400000", "153412.890000", "153414.380000", "153415.870000", "153417.360000", "153418.850000", "153420.340000", "153421.830000", "153423.320000", "153424.810000", "153426.300000", "153427.790000", "153429.280000", "153430.770000", "153432.260000", "153433.750000", "153435.240000", "153436.730000", "153438.220000", "153439.710000", "153441.200000", "153442.690000", "153444.180000", "153445.670000", "153447.160000", "153448.650000", "153450.140000", "153451.630000", "153453.120000", "153454.610000", "153456.100000", "153457.590000", "153459.080000", "153500.570000", "153502.060000", "153503.550000", "153505.040000", "153506.530000", "153508.020000", "153509.510000", "153511.000000", "153512.490000", "153513.980000", "153515.470000", "153516.960000", "153518.450000", "153519.940000", "153521.430000", "153522.920000", "153524.410000", "153525.900000", "153527.390000", "153528.880000", "153530.370000", "153531.860000", "153533.350000", "153534.840000", "153536.330000", "153537.820000", "153539.310000", "153540.800000", "153542.290000", "153543.780000", "153545.270000", "153546.760000", "153548.250000", "153549.740000", "153551.230000", "153552.720000", "153554.210000", "153555.700000", "153557.190000", "153558.680000", "153600.170000", "153601.660000", "153603.150000"],
      "ContentTime": ["153348.040000", "153348.043000", "153348.046000", "153348.048000", "153348.051000", "153348.053000", "153348.056000", "153348.058000", "153348.061000", "153348.063000", "153348.066000", "153348.068000", "153348.071000", "153348.073000", "153348.076000", "153348.078000", "153348.081000", "153348.083000", "153348.086000", "153348.091000", "153408.038000", "153408.041000", "153408.044000", "153408.046000", "153408.049000", "153408.052000", "153408.054000", "153408.057000", "153408.059000", "153408.062000", "153408.064000", "153408.067000", "153408.069000", "153408.072000", "153408.074000", "153408.077000", "153408.079000", "153408.082000", "153408.084000", "153408.087000", "153428.036000", "153428.042000", "153428.045000", "153428.048000", "153428.050000", "153428.053000", "153428.055000", "153428.058000", "153428.060000", "153428.063000", "153428.065000", "153428.067000", "153428.070000", "153428.072000", "153428.075000", "153428.077000", "153428.080000", "153428.082000", "153428.085000", "153428.087000", "153448.036000", "153448.039000", "153448.041000", "153448.044000", "153448.047000", "153448.050000", "153448.053000", "153448.055000", "153448.058000", "153448.061000", "153448.063000", "153448.066000", "153448.068000", "153448.071000", "153448.073000", "153448.076000", "153448.079000", "153448.081000", "153448.084000", "153448.086000", "153508.040000", "153508.043000", "153508.045000", "153508.048000", "153508.050000", "153508.053000", "153508.056000", "153508.058000", "153508.061000", "153508.063000", "153508.066000", "153508.068000", "153508.070000", "153508.081000", "153508.084000", "153508.086000", "153508.089000", "153508.091000", "153508.094000", "153508.097000", "153548.088000", "153548.091000", "153548.094000", "153548.096000", "153548.099000", "153548.101000", "153548.104000", "153548.106000", "153548.109000", "153548.111000", "153548.114000", "153548.116000", "153548.119000", "153548.121000", "153548.124000", "153548.126000", "153548.129000", "153548.131000", "153548.139000", "153548.142000", "153548.144000", "153548.147000", "153548.149000", "153548.152000", "153548.154000", "153548.157000", "153548.160000", "153548.162000", "153548.165000", "153548.167000", "153606.152000", "153606.155000", "153606.157000", "153606.160000", "153606.163000", "153606.165000", "153606.168000", "153606.170000", "153606.173000", "153606.175000", "153606.178000", "153606.180000"],
      "InstanceCreationTime": ["153348.040000", "153348.043000", "153348.046000", "153348.048000", "153348.051000", "153348.053000", "153348.056000", "153348.058000", "153348.061000", "153348.063000", "153348.066000", "153348.068000", "153348.071000", "153348.073000", "153348.076000", "153348.078000", "153348.081000", "153348.083000", "153348.086000", "153348.091000", "153408.038000", "153408.041000", "153408.044000", "153408.046000", "153408.049000", "153408.052000", "153408.054000", "153408.057000", "153408.059000", "153408.062000", "153408.064000", "153408.067000", "153408.069000", "153408.072000", "153408.074000", "153408.077000", "153408.079000", "153408.082000", "153408.084000", "153408.087000", "153428.036000", "153428.042000", "153428.045000", "153428.048000", "153428.050000", "153428.053000", "153428.055000", "153428.058000", "153428.060000", "153428.063000", "153428.065000", "153428.067000", "153428.070000", "153428.072000", "153428.075000", "153428.077000", "153428.080000", "153428.082000", "153428.085000", "153428.087000", "153448.036000", "153448.039000", "153448.041000", "153448.044000", "153448.047000", "153448.050000", "153448.053000", "153448.055000", "153448.058000", "153448.061000", "153448.063000", "153448.066000", "153448.068000", "153448.071000", "153448.073000", "153448.076000", "153448.079000", "153448.081000", "153448.084000", "153448.086000", "153508.040000", "153508.043000", "153508.045000", "153508.048000", "153508.050000", "153508.053000", "153508.056000", "153508.058000", "153508.061000", "153508.063000", "153508.066000", "153508.068000", "153508.070000", "153508.081000", "153508.084000", "153508.086000", "153508.089000", "153508.091000", "153508.094000", "153508.097000", "153548.088000", "153548.091000", "153548.094000", "153548.096000", "153548.099000", "153548.101000", "153548.104000", "153548.106000", "153548.109000", "153548.111000", "153548.114000", "153548.116000", "153548.119000", "153548.121000", "153548.124000", "153548.126000", "153548.129000", "153548.131000", "153548.139000", "153548.142000", "153548.144000", "153548.147000", "153548.149000", "153548.152000", "153548.154000", "153548.157000", "153548.160000", "153548.162000", "153548.165000", "153548.167000", "153606.152000", "153606.155000", "153606.157000", "153606.160000", "153606.163000", "153606.165000", "153606.168000", "153606.170000", "153606.173000", "153606.175000", "153606.178000", "153606.180000"],
      "InstanceNumber": [1, 2, 3, 4, 5, 6, 7, 8, 9, 10, 11, 12, 13, 14, 15, 16, 17, 18, 19, 20, 21, 22, 23, 24, 25, 26, 27, 28, 29, 30, 31, 32, 33, 34, 35, 36, 37, 38, 39, 40, 41, 42, 43, 44, 45, 46, 47, 48, 49, 50, 51, 52, 53, 54, 55, 56, 57, 58, 59, 60, 61, 62, 63, 64, 65, 66, 67, 68, 69, 70, 71, 72, 73, 74, 75, 76, 77, 78, 79, 80, 81, 82, 83, 84, 85, 86, 87, 88, 89, 90, 91, 92, 93, 94, 95, 96, 97, 98, 99, 100, 101, 102, 103, 104, 105, 106, 107, 108, 109, 110, 111, 112, 113, 114, 115, 116, 117, 118, 119, 120, 121, 122, 123, 124, 125, 126, 127, 128, 129, 130, 131, 132, 133, 134, 135, 136, 137, 138, 139, 140, 141, 142],
      "WindowCenter": [4848.0, 4844.0, 4846.0, 4868.0, 4872.0, 4870.0, 4868.0, 4868.0, 4870.0, 4844.0, 4872.0, 4870.0, 4870.0, 4844.0, 4870.0, 4846.0, 4846.0, 4844.0, 4846.0, 4866.0, 4868.0, 4846.0, 4848.0, 4844.0, 4844.0, 4848.0, 4870.0, 4870.0, 4868.0, 4872.0, 4848.0, 4870.0, 4870.0, 4848.0, 4844.0, 4846.0, 4870.0, 4846.0, 4870.0, 4872.0, 4866.0, 4868.0, 4868.0, 4870.0, 4872.0, 4866.0, 4874.0, 4874.0, 4846.0, 4868.0, 4844.0, 4868.0, 4870.0, 4846.0, 4846.0, 4834.0, 4868.0, 4846.0, 4848.0, 4848.0, 4850.0, 4868.0, 4870.0, 4864.0, 4846.0, 4870.0, 4870.0, 4872.0, 4848.0, 4868.0, 4870.0, 4844.0, 4848.0, 4844.0, 4868.0, 4868.0, 4846.0, 4848.0, 4866.0, 4870.0, 4870.0, 4848.0, 4848.0, 4848.0, 4868.0, 4846.0, 4846.0, 4842.0, 4834.0, 4866.0, 4848.0, 4846.0, 4846.0, 4846.0, 4868.0, 4870.0, 4846.0, 4844.0, 4868.0, 4848.0, 4844.0, 4846.0, 4868.0, 4844.0, 4850.0, 4832.0, 4798.0, 4870.0, 4846.0, 4844.0, 4846.0, 4846.0, 4846.0, 4842.0, 4866.0, 4844.0, 4836.0, 4866.0, 4846.0, 4868.0, 4870.0, 4852.0, 4870.0, 4872.0, 4870.0, 4868.0, 4868.0, 4872.0, 4846.0, 4870.0, 4850.0, 4846.0, 4848.0, 4846.0, 4844.0, 4838.0, 4868.0, 4848.0, 4834.0, 4832.0, 4874.0, 4846.0],
      "WindowWidth": [18642.0, 18644.0, 18650.0, 18684.0, 18680.0, 18684.0, 18682.0, 18676.0, 18672.0, 18646.0, 18684.0, 18680.0, 18674.0, 18638.0, 18686.0, 18640.0, 18642.0, 18646.0, 18650.0, 18680.0, 18696.0, 18644.0, 18636.0, 18630.0, 18634.0, 18644.0, 18684.0, 18684.0, 18676.0, 18676.0, 18644.0, 18674.0, 18678.0, 18642.0, 18636.0, 18644.0, 18682.0, 18642.0, 18686.0, 18678.0, 18674.0, 18674.0, 18684.0, 18682.0, 18682.0, 18684.0, 18678.0, 18682.0, 18638.0, 18680.0, 18644.0, 18680.0, 18670.0, 18646.0, 18650.0, 18650.0, 18682.0, 18644.0, 18644.0, 18638.0, 18644.0, 18682.0, 18672.0, 18680.0, 18650.0, 18682.0, 18682.0, 18684.0, 18646.0, 18678.0, 18678.0, 18642.0, 18646.0, 18644.0, 18682.0, 18682.0, 18650.0, 18650.0, 18682.0, 18678.0, 18680.0, 18648.0, 18648.0, 18644.0, 18680.0, 18648.0, 18648.0, 18650.0, 18648.0, 18682.0, 18638.0, 18632.0, 18638.0, 18636.0, 18678.0, 18678.0, 18654.0, 18648.0, 18682.0, 18648.0, 18648.0, 18638.0, 18682.0, 18634.0, 18642.0, 18650.0, 18608.0, 18680.0, 18636.0, 18626.0, 18626.0, 18636.0, 18646.0, 18644.0, 18676.0, 18652.0, 18650.0, 18680.0, 18636.0, 18682.0, 18672.0, 18636.0, 18678.0, 18668.0, 18680.0, 18682.0, 18680.0, 18678.0, 18646.0, 18680.0, 18644.0, 18638.0, 18636.0, 18638.0, 18652.0, 18648.0, 18682.0, 18648.0, 18640.0, 18644.0, 18680.0, 18638.0]
    },
    "slices": {}
  }
}