{
  "AcquisitionMatrixPE": 104,
  "AcquisitionNumber": 1,
  "AcquisitionTime": "14:29:10.582500",
  "BandwidthPerPixelPhaseEncode": 17.17,
  "BaseResolution": 104,
  "BodyPartExamined": "BRAIN",
  "CoilString": "HC1-7;NC1_2",
  "ConsistencyInfo": "N4_VE11C_LATEST_20160120",
  "ConversionSoftware": "dcm2niix",
  "ConversionSoftwareVersion": "v1.0.20190902",
  "DerivedVendorReportedEchoSpacing": 0.000560011,
  "DeviceSerialNumber": "167006",
  "DwellTime": 2.1e-06,
  "EchoTime": 0.037,
  "EchoTrainLength": 104,
  "EffectiveEchoSpacing": 0.000560011,
  "FlipAngle": 52,
  "HeudiconvVersion": "0.10.0",
  "ImageComments": "Unaliased_MB4_PE3_LB",
  "ImageOrientationPatientDICOM": [0.99954, 0.0270299, -0.0137309, -0.0301895, 0.845801, -0.532644],
  "ImageType": [
    "ORIGINAL",
    "PRIMARY",
    "P",
    "MB",
    "ND",
    "MOSAIC"
],
  "ImagingFrequency": 123.259,
  "InPlanePhaseEncodingDirectionDICOM": "COL",
  "InstitutionAddress": "Chemin_Queen-Mary_4565_Montreal_District_CA_H3W_1W5",
  "InstitutionName": "IUGM",
  "InstitutionalDepartmentName": "Department",
  "MRAcquisitionType": "2D",
  "MagneticFieldStrength": 3,
  "Manufacturer": "Siemens",
  "ManufacturersModelName": "Prisma_fit",
  "Modality": "MR",
  "MultibandAccelerationFactor": 4,
  "PartialFourier": 1,
  "PatientPosition": "HFS",
  "PercentPhaseFOV": 100,
  "PhaseEncodingDirection": "j",
  "PhaseEncodingSteps": 104,
  "PhaseResolution": 1,
  "PixelBandwidth": 2290,
  "ProcedureStepDescription": "games_mario",
  "ProtocolName": "func_task-mario_run-03",
  "PulseSequenceDetails": "%CustomerSeq%_cmrr_mbep2d_bold",
  "ReceiveCoilActiveElements": "HC1-7;NC1,2",
  "ReceiveCoilName": "HeadNeck_64",
  "ReconMatrixPE": 104,
  "RepetitionTime": 1.49,
  "SAR": 0.0532505,
  "ScanOptions": "FS",
  "ScanningSequence": "EP",
  "SequenceName": "epfid2d1_104",
  "SequenceVariant": "SK_SS",
  "SeriesDescription": "func_task-mario_run-03",
  "SeriesNumber": 17,
  "ShimSetting": [614, -7168, -8870, 210, 23, -159, 0, -14],
  "SliceThickness": 2,
  "SliceTiming": [0, 0.785, 0.0975, 0.8825, 0.195, 0.98, 0.295, 1.0775, 0.3925, 1.175, 0.49, 1.275, 0.5875, 1.3725, 0.685, 0, 0.785, 0.0975, 0.8825, 0.195, 0.98, 0.295, 1.0775, 0.3925, 1.175, 0.49, 1.275, 0.5875, 1.3725, 0.685, 0, 0.785, 0.0975, 0.8825, 0.195, 0.98, 0.295, 1.0775, 0.3925, 1.175, 0.49, 1.275, 0.5875, 1.3725, 0.685, 0, 0.785, 0.0975, 0.8825, 0.195, 0.98, 0.295, 1.0775, 0.3925, 1.175, 0.49, 1.275, 0.5875, 1.3725, 0.685],
  "SoftwareVersions": "syngo_MR_E11",
  "SpacingBetweenSlices": 2,
  "StationName": "MRC35049",
  "TaskName": "mario",
  "TotalReadoutTime": 0.0576811,
  "TxRefAmp": 287.122,
  "WipMemBlock": "f956686e-2eab-4e5e-906c-7b01148e2d2e||Sequence: R016 ve11c/master r/e634e98; Dec 19 2017 11:00:25 by eja",
  "dcmmeta_affine": [
    [-1.9990806579589844, -0.06037895008921623, 0.005567350424826145, 109.89615631103516],
    [-0.05405976623296738, 1.691601276397705, -1.0656278133392334, -46.15350341796875],
    [-0.02746187523007393, 1.0652884244918823, 1.692455768585205, -95.30474853515625],
    [0.0, 0.0, 0.0, 1.0]
],
  "dcmmeta_reorient_transform": [
    [0.0, -1.0, 0.0, 103.0],
    [1.0, 0.0, 0.0, 0.0],
    [0.0, 0.0, 1.0, 0.0],
    [0.0, 0.0, 0.0, 1.0]
],
  "dcmmeta_shape": [104, 104, 60, 452],
  "dcmmeta_slice_dim": 2,
  "dcmmeta_version": 0.6,
  "global": {
    "const": {
      "AcquisitionMatrix": [104, 0, 0, 104],
      "AngioFlag": "N",
      "BitsAllocated": 16,
      "BitsStored": 16,
      "BodyPartExamined": "BRAIN",
      "Columns": 832,
      "EchoNumbers": 1,
      "EchoTime": 37.0,
      "EchoTrainLength": 104,
      "FlipAngle": 52.0,
      "HighBit": 15,
      "ImageOrientationPatient": [0.99954031770994, 0.02702988400487, -0.0137309374403, -0.0301894753874, 0.84580065258491, -0.5326442073869],
      "ImagePositionPatient": [-809.36454104827, -763.5020628697, 412.18106339783],
      "ImageType": [
        "ORIGINAL",
        "PRIMARY",
        "P",
        "MB",
        "ND",
        "MOSAIC"
],
      "ImagedNucleus": "1H",
      "ImagingFrequency": 123.258934,
      "InPlanePhaseEncodingDirection": "COL",
      "LargestImagePixelValue": 4095,
      "MRAcquisitionType": "2D",
      "MagneticFieldStrength": 3.0,
      "Manufacturer": "SIEMENS",
      "ManufacturerModelName": "Prisma_fit",
      "Modality": "MR",
      "NumberOfAverages": 1.0,
      "NumberOfPhaseEncodingSteps": 104,
      "PercentPhaseFieldOfView": 100.0,
      "PercentSampling": 100.0,
      "PerformedProcedureStepStartTime": "133223.210000",
      "PhotometricInterpretation": "MONOCHROME2",
      "PixelBandwidth": 2290.0,
      "PixelRepresentation": 0,
      "PixelSpacing": [2.0, 2.0],
      "ProtocolName": "func_task-mario_run-03",
      "RepetitionTime": 1490.0,
      "RescaleIntercept": -4096.0,
      "RescaleSlope": 2.0,
      "RescaleType": "US",
      "Rows": 832,
      "SAR": 0.05325052972468,
      "SamplesPerPixel": 1,
      "ScanOptions": "FS",
      "ScanningSequence": "EP",
      "SequenceName": "epfid2d1_104",
      "SequenceVariant": [
        "SK",
        "SS"
],
      "SeriesDescription": "func_task-mario_run-03",
      "SeriesNumber": 17,
      "SeriesTime": "143026.111000",
      "SliceLocation": -55.752392367084,
      "SliceThickness": 2.0,
      "SmallestImagePixelValue": 0,
      "SoftwareVersions": "syngo MR E11",
      "SpacingBetweenSlices": 1.9999999917421,
      "SpecificCharacterSet": "ISO_IR 100",
      "StudyID": "1",
      "StudyTime": "133223.092000",
      "TransmitCoilName": "Body",
      "VariableFlipAngleFlag": "N",
      "WindowCenterWidthExplanation": "Algo1",
      "dBdt": 0.0},
    "slices": {}
  },
  "time": {
    "samples": {
      "AcquisitionNumber": [1, 2, 3, 4, 5, 6, 7, 8, 9, 10, 11, 12, 13, 14, 15, 16, 17, 18, 19, 20, 21, 22, 23, 24, 25, 26, 27, 28, 29, 30, 31, 32, 33, 34, 35, 36, 37, 38, 39, 40, 41, 42, 43, 44, 45, 46, 47, 48, 49, 50, 51, 52, 53, 54, 55, 56, 57, 58, 59, 60, 61, 62, 63, 64, 65, 66, 67, 68, 69, 70, 71, 72, 73, 74, 75, 76, 77, 78, 79, 80, 81, 82, 83, 84, 85, 86, 87, 88, 89, 90, 91, 92, 93, 94, 95, 96, 97, 98, 99, 100, 101, 102, 103, 104, 105, 106, 107, 108, 109, 110, 111, 112, 113, 114, 115, 116, 117, 118, 119, 120, 121, 122, 123, 124, 125, 126, 127, 128, 129, 130, 131, 132, 133, 134, 135, 136, 137, 138, 139, 140, 141, 142, 143, 144, 145, 146, 147, 148, 149, 150, 151, 152, 153, 154, 155, 156, 157, 158, 159, 160, 161, 162, 163, 164, 165, 166, 167, 168, 169, 170, 171, 172, 173, 174, 175, 176, 177, 178, 179, 180, 181, 182, 183, 184, 185, 186, 187, 188, 189, 190, 191, 192, 193, 194, 195, 196, 197, 198, 199, 200, 201, 202, 203, 204, 205, 206, 207, 208, 209, 210, 211, 212, 213, 214, 215, 216, 217, 218, 219, 220, 221, 222, 223, 224, 225, 226, 227, 228, 229, 230, 231, 232, 233, 234, 235, 236, 237, 238, 239, 240, 241, 242, 243, 244, 245, 246, 247, 248, 249, 250, 251, 252, 253, 254, 255, 256, 257, 258, 259, 260, 261, 262, 263, 264, 265, 266, 267, 268, 269, 270, 271, 272, 273, 274, 275, 276, 277, 278, 279, 280, 281, 282, 283, 284, 285, 286, 287, 288, 289, 290, 291, 292, 293, 294, 295, 296, 297, 298, 299, 300, 301, 302, 303, 304, 305, 306, 307, 308, 309, 310, 311, 312, 313, 314, 315, 316, 317, 318, 319, 320, 321, 322, 323, 324, 325, 326, 327, 328, 329, 330, 331, 332, 333, 334, 335, 336, 337, 338, 339, 340, 341, 342, 343, 344, 345, 346, 347, 348, 349, 350, 351, 352, 353, 354, 355, 356, 357, 358, 359, 360, 361, 362, 363, 364, 365, 366, 367, 368, 369, 370, 371, 372, 373, 374, 375, 376, 377, 378, 379, 380, 381, 382, 383, 384, 385, 386, 387, 388, 389, 390, 391, 392, 393, 394, 395, 396, 397, 398, 399, 400, 401, 402, 403, 404, 405, 406, 407, 408, 409, 410, 411, 412, 413, 414, 415, 416, 417, 418, 419, 420, 421, 422, 423, 424, 425, 426, 427, 428, 429, 430, 431, 432, 433, 434, 435, 436, 437, 438, 439, 440, 441, 442, 443, 444, 445, 446, 447, 448, 449, 450, 451, 452],
      "AcquisitionTime": ["142910.582500", "142912.072500", "142913.562500", "142915.052500", "142916.542500", "142918.032500", "142919.522500", "142921.012500", "142922.502500", "142923.992500", "142925.482500", "142926.972500", "142928.462500", "142929.952500", "142931.442500", "142932.932500", "142934.422500", "142935.912500", "142937.402500", "142938.892500", "142940.382500", "142941.872500", "142943.362500", "142944.852500", "142946.342500", "142947.832500", "142949.322500", "142950.812500", "142952.302500", "142953.792500", "142955.282500", "142956.772500", "142958.262500", "142959.752500", "143001.242500", "143002.732500", "143004.222500", "143005.712500", "143007.202500", "143008.692500", "143010.182500", "143011.672500", "143013.162500", "143014.652500", "143016.142500", "143017.632500", "143019.122500", "143020.612500", "143022.102500", "143023.592500", "143025.082500", "143026.572500", "143028.062500", "143029.552500", "143031.042500", "143032.532500", "143034.022500", "143035.512500", "143037.002500", "143038.492500", "143039.982500", "143041.472500", "143042.962500", "143044.452500", "143045.942500", "143047.432500", "143048.922500", "143050.412500", "143051.902500", "143053.392500", "143054.882500", "143056.372500", "143057.862500", "143059.352500", "143100.842500", "143102.332500", "143103.822500", "143105.312500", "143106.802500", "143108.292500", "143109.782500", "143111.272500", "143112.762500", "143114.252500", "143115.742500", "143117.232500", "143118.722500", "143120.212500", "143121.702500", "143123.192500", "143124.682500", "143126.172500", "143127.662500", "143129.152500", "143130.642500", "143132.132500", "143133.622500", "143135.112500", "143136.602500", "143138.092500", "143139.582500", "143141.072500", "143142.562500", "143144.052500", "143145.542500", "143147.032500", "143148.522500", "143150.012500", "143151.502500", "143152.992500", "143154.482500", "143155.972500", "143157.462500", "143158.952500", "143200.442500", "143201.932500", "143203.422500", "143204.912500", "143206.402500", "143207.892500", "143209.382500", "143210.872500", "143212.362500", "143213.852500", "143215.342500", "143216.832500", "143218.322500", "143219.812500", "143221.302500", "143222.792500", "143224.282500", "143225.772500", "143227.262500", "143228.752500", "143230.242500", "143231.732500", "143233.222500", "143234.712500", "143236.202500", "143237.692500", "143239.182500", "143240.672500", "143242.162500", "143243.652500", "143245.142500", "143246.632500", "143248.122500", "143249.612500", "143251.102500", "143252.592500", "143254.082500", "143255.572500", "143257.062500", "143258.552500", "143300.042500", "143301.532500", "143303.022500", "143304.512500", "143306.002500", "143307.492500", "143308.982500", "143310.472500", "143311.962500", "143313.452500", "143314.942500", "143316.432500", "143317.922500", "143319.412500", "143320.902500", "143322.392500", "143323.882500", "143325.372500", "143326.862500", "143328.352500", "143329.842500", "143331.332500", "143332.822500", "143334.312500", "143335.802500", "143337.292500", "143338.782500", "143340.272500", "143341.762500", "143343.252500", "143344.742500", "143346.232500", "143347.722500", "143349.212500", "143350.702500", "143352.192500", "143353.682500", "143355.172500", "143356.662500", "143358.152500", "143359.642500", "143401.132500", "143402.622500", "143404.112500", "143405.602500", "143407.092500", "143408.582500", "143410.072500", "143411.562500", "143413.052500", "143414.542500", "143416.032500", "143417.522500", "143419.012500", "143420.502500", "143421.992500", "143423.482500", "143424.972500", "143426.462500", "143427.952500", "143429.442500", "143430.932500", "143432.422500", "143433.912500", "143435.402500", "143436.892500", "143438.382500", "143439.872500", "143441.362500", "143442.852500", "143444.342500", "143445.832500", "143447.322500", "143448.812500", "143450.302500", "143451.792500", "143453.282500", "143454.772500", "143456.262500", "143457.752500", "143459.242500", "143500.732500", "143502.222500", "143503.712500", "143505.202500", "143506.692500", "143508.182500", "143509.672500", "143511.162500", "143512.652500", "143514.142500", "143515.632500", "143517.122500", "143518.612500", "143520.102500", "143521.592500", "143523.082500", "143524.572500", "143526.062500", "143527.552500", "143529.042500", "143530.532500", "143532.022500", "143533.512500", "143535.002500", "143536.492500", "143537.982500", "143539.472500", "143540.962500", "143542.452500", "143543.942500", "143545.432500", "143546.922500", "143548.412500", "143549.902500", "143551.392500", "143552.882500", "143554.372500", "143555.862500", "143557.352500", "143558.842500", "143600.332500", "143601.822500", "143603.312500", "143604.802500", "143606.292500", "143607.782500", "143609.272500", "143610.762500", "143612.252500", "143613.742500", "143615.232500", "143616.722500", "143618.212500", "143619.702500", "143621.192500", "143622.682500", "143624.172500", "143625.662500", "143627.152500", "143628.642500", "143630.132500", "143631.622500", "143633.112500", "143634.602500", "143636.092500", "143637.582500", "143639.072500", "143640.562500", "143642.052500", "143643.542500", "143645.032500", "143646.522500", "143648.012500", "143649.502500", "143650.992500", "143652.482500", "143653.972500", "143655.462500", "143656.952500", "143658.442500", "143659.932500", "143701.422500", "143702.912500", "143704.402500", "143705.892500", "143707.382500", "143708.872500", "143710.362500", "143711.852500", "143713.342500", "143714.832500", "143716.322500", "143717.812500", "143719.302500", "143720.792500", "143722.282500", "143723.772500", "143725.262500", "143726.752500", "143728.242500", "143729.732500", "143731.222500", "143732.712500", "143734.202500", "143735.692500", "143737.182500", "143738.672500", "143740.162500", "143741.652500", "143743.142500", "143744.632500", "143746.122500", "143747.612500", "143749.102500", "143750.592500", "143752.082500", "143753.572500", "143755.062500", "143756.552500", "143758.042500", "143759.532500", "143801.022500", "143802.512500", "143804.002500", "143805.492500", "143806.982500", "143808.472500", "143809.962500", "143811.452500", "143812.942500", "143814.432500", "143815.922500", "143817.412500", "143818.902500", "143820.392500", "143821.882500", "143823.372500", "143824.862500", "143826.352500", "143827.842500", "143829.332500", "143830.822500", "143832.312500", "143833.802500", "143835.292500", "143836.782500", "143838.272500", "143839.762500", "143841.252500", "143842.742500", "143844.232500", "143845.722500", "143847.212500", "143848.702500", "143850.192500", "143851.682500", "143853.172500", "143854.662500", "143856.152500", "143857.642500", "143859.132500", "143900.622500", "143902.112500", "143903.602500", "143905.092500", "143906.582500", "143908.072500", "143909.562500", "143911.052500", "143912.542500", "143914.032500", "143915.522500", "143917.012500", "143918.502500", "143919.992500", "143921.482500", "143922.972500", "143924.462500", "143925.952500", "143927.442500", "143928.932500", "143930.422500", "143931.912500", "143933.402500", "143934.892500", "143936.382500", "143937.872500", "143939.362500", "143940.852500", "143942.342500", "143943.832500", "143945.322500", "143946.812500", "143948.302500", "143949.792500", "143951.282500", "143952.772500", "143954.262500", "143955.752500", "143957.242500", "143958.732500", "144000.222500", "144001.712500", "144003.202500", "144004.692500", "144006.182500", "144007.672500", "144009.162500", "144010.652500", "144012.142500", "144013.632500", "144015.122500", "144016.612500", "144018.102500", "144019.592500", "144021.082500", "144022.572500"],
      "ContentTime": ["143026.113000", "143026.116000", "143026.119000", "143026.121000", "143026.124000", "143026.126000", "143026.129000", "143026.131000", "143026.134000", "143026.143000", "143026.146000", "143026.148000", "143026.151000", "143026.153000", "143026.156000", "143026.158000", "143026.161000", "143026.164000", "143026.166000", "143026.169000", "143026.171000", "143026.174000", "143046.089000", "143046.091000", "143046.094000", "143046.096000", "143046.099000", "143046.102000", "143046.104000", "143046.107000", "143046.109000", "143046.112000", "143046.114000", "143046.117000", "143046.119000", "143046.122000", "143046.124000", "143046.127000", "143046.129000", "143046.140000", "143046.142000", "143046.145000", "143106.071000", "143106.073000", "143106.076000", "143106.078000", "143106.081000", "143106.083000", "143106.086000", "143106.088000", "143106.091000", "143106.094000", "143106.096000", "143106.099000", "143106.101000", "143106.104000", "143106.106000", "143106.109000", "143106.111000", "143106.114000", "143106.117000", "143106.119000", "143106.122000", "143126.052000", "143126.055000", "143126.058000", "143126.060000", "143126.063000", "143126.065000", "143126.068000", "143126.070000", "143126.073000", "143126.075000", "143126.078000", "143126.080000", "143126.083000", "143126.085000", "143126.088000", "143126.091000", "143126.093000", "143126.096000", "143126.098000", "143126.101000", "143146.063000", "143146.066000", "143146.068000", "143146.071000", "143146.073000", "143146.076000", "143146.079000", "143146.081000", "143146.084000", "143146.094000", "143146.096000", "143146.099000", "143146.102000", "143146.104000", "143146.107000", "143146.109000", "143146.112000", "143146.114000", "143146.126000", "143146.129000", "143226.088000", "143226.091000", "143226.093000", "143226.096000", "143226.099000", "143226.101000", "143226.104000", "143226.106000", "143226.109000", "143226.111000", "143226.114000", "143226.116000", "143226.119000", "143226.121000", "143226.124000", "143226.126000", "143226.129000", "143226.132000", "143226.138000", "143226.140000", "143226.143000", "143226.145000", "143226.148000", "143226.151000", "143226.153000", "143226.156000", "143226.158000", "143306.096000", "143306.099000", "143306.101000", "143306.104000", "143306.107000", "143306.109000", "143306.112000", "143306.114000", "143306.117000", "143306.119000", "143306.122000", "143306.125000", "143306.128000", "143306.130000", "143306.133000", "143306.135000", "143306.138000", "143306.140000", "143306.143000", "143306.145000", "143306.148000", "143306.151000", "143306.153000", "143306.156000", "143306.158000", "143306.161000", "143306.164000", "143346.085000", "143346.088000", "143346.090000", "143346.093000", "143346.096000", "143346.098000", "143346.101000", "143346.103000", "143346.106000", "143346.108000", "143346.111000", "143346.113000", "143346.116000", "143346.118000", "143346.121000", "143346.124000", "143346.126000", "143346.129000", "143346.131000", "143346.134000", "143346.136000", "143346.139000", "143346.141000", "143346.144000", "143346.147000", "143346.149000", "143346.152000", "143426.099000", "143426.101000", "143426.104000", "143426.106000", "143426.109000", "143426.112000", "143426.114000", "143426.117000", "143426.119000", "143426.122000", "143426.124000", "143426.127000", "143426.136000", "143426.138000", "143426.141000", "143426.143000", "143426.146000", "143426.149000", "143426.151000", "143426.154000", "143426.156000", "143426.159000", "143426.162000", "143426.164000", "143426.167000", "143426.170000", "143426.172000", "143506.084000", "143506.086000", "143506.089000", "143506.092000", "143506.094000", "143506.097000", "143506.100000", "143506.102000", "143506.105000", "143506.107000", "143506.110000", "143506.113000", "143506.115000", "143506.118000", "143506.120000", "143506.123000", "143506.126000", "143506.128000", "143506.131000", "143506.133000", "143506.136000", "143506.138000", "143506.141000", "143506.144000", "143506.146000", "143506.149000", "143546.092000", "143546.095000", "143546.097000", "143546.100000", "143546.102000", "143546.105000", "143546.108000", "143546.110000", "143546.113000", "143546.115000", "143546.118000", "143546.120000", "143546.123000", "143546.125000", "143546.128000", "143546.130000", "143546.133000", "143546.136000", "143546.138000", "143546.141000", "143546.143000", "143546.146000", "143546.148000", "143546.151000", "143546.153000", "143546.156000", "143546.158000", "143626.094000", "143626.097000", "143626.099000", "143626.102000", "143626.105000", "143626.107000", "143626.110000", "143626.112000", "143626.115000", "143626.117000", "143626.120000", "143626.123000", "143626.125000", "143626.128000", "143626.130000", "143626.133000", "143626.135000", "143626.138000", "143626.140000", "143626.143000", "143626.146000", "143626.148000", "143626.151000", "143626.153000", "143626.156000", "143626.158000", "143626.161000", "143706.102000", "143706.105000", "143706.107000", "143706.110000", "143706.113000", "143706.115000", "143706.118000", "143706.120000", "143706.123000", "143706.126000", "143706.128000", "143706.131000", "143706.133000", "143706.136000", "143706.139000", "143706.141000", "143706.144000", "143706.146000", "143706.149000", "143706.152000", "143706.154000", "143706.157000", "143706.159000", "143706.162000", "143706.164000", "143706.167000", "143706.170000", "143746.100000", "143746.102000", "143746.105000", "143746.107000", "143746.110000", "143746.112000", "143746.115000", "143746.118000", "143746.120000", "143746.123000", "143746.125000", "143746.128000", "143746.130000", "143746.133000", "143746.135000", "143746.138000", "143746.140000", "143746.143000", "143746.146000", "143746.148000", "143746.151000", "143746.153000", "143746.156000", "143746.167000", "143746.169000", "143746.172000", "143746.174000", "143826.165000", "143826.168000", "143826.170000", "143826.173000", "143826.175000", "143826.178000", "143826.181000", "143826.183000", "143826.186000", "143826.188000", "143826.191000", "143826.193000", "143826.196000", "143826.199000", "143826.201000", "143826.204000", "143826.206000", "143826.209000", "143826.211000", "143826.214000", "143826.216000", "143826.219000", "143826.221000", "143826.224000", "143826.227000", "143826.229000", "143826.232000", "143906.470000", "143906.472000", "143906.475000", "143906.477000", "143906.480000", "143906.483000", "143906.485000", "143906.488000", "143906.490000", "143906.493000", "143906.495000", "143906.498000", "143906.501000", "143906.503000", "143906.506000", "143906.508000", "143906.511000", "143906.513000", "143906.516000", "143906.518000", "143906.521000", "143906.524000", "143906.526000", "143906.529000", "143906.531000", "143906.534000", "143946.107000", "143946.110000", "143946.113000", "143946.115000", "143946.118000", "143946.120000", "143946.123000", "143946.125000", "143946.128000", "143946.130000", "143946.133000", "143946.136000", "143946.138000", "143946.141000", "143946.143000", "143946.146000", "143946.149000", "143946.151000", "143946.154000", "143946.156000", "143946.159000", "143946.162000", "143946.164000", "143946.167000", "143946.170000", "143946.173000", "143946.176000", "144026.110000", "144026.113000", "144026.118000", "144026.121000", "144026.125000", "144026.129000", "144026.132000", "144026.135000", "144026.137000", "144026.140000", "144026.143000", "144026.148000", "144026.152000", "144026.156000", "144026.159000", "144026.162000", "144026.166000", "144026.168000", "144026.171000", "144026.173000", "144026.176000", "144026.179000", "144026.185000", "144026.189000", "144026.192000", "144026.195000", "144026.197000"],
