{
  "AcquisitionMatrixPE": 104,
  "AcquisitionNumber": 1,
  "AcquisitionTime": "13:50:41.292500",
  "BandwidthPerPixelPhaseEncode": 17.17,
  "BaseResolution": 104,
  "BodyPartExamined": "BRAIN",
  "CoilString": "HC1-7;NC1_2",
  "ConsistencyInfo": "N4_VE11C_LATEST_20160120",
  "ConversionSoftware": "dcm2niix",
  "ConversionSoftwareVersion": "v1.0.20190902",
  "DerivedVendorReportedEchoSpacing": 0.000560011,
  "DeviceSerialNumber": "167006",
  "DwellTime": 2.1e-06,
  "EchoTime": 0.037,
  "EchoTrainLength": 104,
  "EffectiveEchoSpacing": 0.000560011,
  "FlipAngle": 52,
  "HeudiconvVersion": "0.10.0",
  "ImageComments": "Unaliased_MB4_PE3_LB",
  "ImageOrientationPatientDICOM": [0.99954, 0.0270299, -0.0137309, -0.0301895, 0.845801, -0.532644],
  "ImageType": [
    "ORIGINAL",
    "PRIMARY",
    "P",
    "MB",
    "ND",
    "MOSAIC"
],
  "ImagingFrequency": 123.259,
  "InPlanePhaseEncodingDirectionDICOM": "COL",
  "InstitutionAddress": "Chemin_Queen-Mary_4565_Montreal_District_CA_H3W_1W5",
  "InstitutionName": "IUGM",
  "InstitutionalDepartmentName": "Department",
  "MRAcquisitionType": "2D",
  "MagneticFieldStrength": 3,
  "Manufacturer": "Siemens",
  "ManufacturersModelName": "Prisma_fit",
  "Modality": "MR",
  "MultibandAccelerationFactor": 4,
  "PartialFourier": 1,
  "PatientPosition": "HFS",
  "PercentPhaseFOV": 100,
  "PhaseEncodingDirection": "j",
  "PhaseEncodingSteps": 104,
  "PhaseResolution": 1,
  "PixelBandwidth": 2290,
  "ProcedureStepDescription": "games_mario",
  "ProtocolName": "func_task-mario_run-01",
  "PulseSequenceDetails": "%CustomerSeq%_cmrr_mbep2d_bold",
  "ReceiveCoilActiveElements": "HC1-7;NC1,2",
  "ReceiveCoilName": "HeadNeck_64",
  "ReconMatrixPE": 104,
  "RepetitionTime": 1.49,
  "SAR": 0.0532505,
  "ScanOptions": "FS",
  "ScanningSequence": "EP",
  "SequenceName": "epfid2d1_104",
  "SequenceVariant": "SK_SS",
  "SeriesDescription": "func_task-mario_run-01",
  "SeriesNumber": 11,
  "ShimSetting": [614, -7168, -8870, 210, 23, -159, 0, -14],
  "SliceThickness": 2,
  "SliceTiming": [0, 0.7825, 0.0975, 0.88, 0.195, 0.98, 0.2925, 1.0775, 0.39, 1.175, 0.49, 1.2725, 0.5875, 1.37, 0.685, 0, 0.7825, 0.0975, 0.88, 0.195, 0.98, 0.2925, 1.0775, 0.39, 1.175, 0.49, 1.2725, 0.5875, 1.37, 0.685, 0, 0.7825, 0.0975, 0.88, 0.195, 0.98, 0.2925, 1.0775, 0.39, 1.175, 0.49, 1.2725, 0.5875, 1.37, 0.685, 0, 0.7825, 0.0975, 0.88, 0.195, 0.98, 0.2925, 1.0775, 0.39, 1.175, 0.49, 1.2725, 0.5875, 1.37, 0.685],
  "SoftwareVersions": "syngo_MR_E11",
  "SpacingBetweenSlices": 2,
  "StationName": "MRC35049",
  "TaskName": "mario",
  "TotalReadoutTime": 0.0576811,
  "TxRefAmp": 287.122,
  "WipMemBlock": "573f470f-e1c3-45fa-8a40-a1f0d7352e4a||Sequence: R016 ve11c/master r/e634e98; Dec 19 2017 11:00:25 by eja",
  "dcmmeta_affine": [
    [-1.9990806579589844, -0.06037895008921623, 0.005567350424826145, 109.89615631103516],
    [-0.05405976623296738, 1.691601276397705, -1.0656278133392334, -46.15350341796875],
    [-0.02746187523007393, 1.0652884244918823, 1.692455768585205, -95.30474853515625],
    [0.0, 0.0, 0.0, 1.0]
],
  "dcmmeta_reorient_transform": [
    [0.0, -1.0, 0.0, 103.0],
    [1.0, 0.0, 0.0, 0.0],
    [0.0, 0.0, 1.0, 0.0],
    [0.0, 0.0, 0.0, 1.0]
],
  "dcmmeta_shape": [104, 104, 60, 427],
  "dcmmeta_slice_dim": 2,
  "dcmmeta_version": 0.6,
  "global": {
    "const": {
      "AcquisitionMatrix": [104, 0, 0, 104],
      "AngioFlag": "N",
      "BitsAllocated": 16,
      "BitsStored": 16,
      "BodyPartExamined": "BRAIN",
      "Columns": 832,
      "EchoNumbers": 1,
      "EchoTime": 37.0,
      "EchoTrainLength": 104,
      "FlipAngle": 52.0,
      "HighBit": 15,
      "ImageOrientationPatient": [0.99954031770994, 0.02702988400487, -0.0137309374403, -0.0301894753874, 0.84580065258491, -0.5326442073869],
      "ImagePositionPatient": [-809.36454104827, -763.5020628697, 412.18106339783],
      "ImageType": [
        "ORIGINAL",
        "PRIMARY",
        "P",
        "MB",
        "ND",
        "MOSAIC"
],
      "ImagedNucleus": "1H",
      "ImagingFrequency": 123.258919,
      "InPlanePhaseEncodingDirection": "COL",
      "LargestImagePixelValue": 4095,
      "MRAcquisitionType": "2D",
      "MagneticFieldStrength": 3.0,
      "Manufacturer": "SIEMENS",
      "ManufacturerModelName": "Prisma_fit",
      "Modality": "MR",
      "NumberOfAverages": 1.0,
      "NumberOfPhaseEncodingSteps": 104,
      "PercentPhaseFieldOfView": 100.0,
      "PercentSampling": 100.0,
      "PerformedProcedureStepStartTime": "133223.210000",
      "PhotometricInterpretation": "MONOCHROME2",
      "PixelBandwidth": 2290.0,
      "PixelRepresentation": 0,
      "PixelSpacing": [2.0, 2.0],
      "ProtocolName": "func_task-mario_run-01",
      "RepetitionTime": 1490.0,
      "RescaleIntercept": -4096.0,
      "RescaleSlope": 2.0,
      "RescaleType": "US",
      "Rows": 832,
      "SAR": 0.05325052972468,
      "SamplesPerPixel": 1,
      "ScanOptions": "FS",
      "ScanningSequence": "EP",
      "SequenceName": "epfid2d1_104",
      "SequenceVariant": [
        "SK",
        "SS"
],
      "SeriesDescription": "func_task-mario_run-01",
      "SeriesNumber": 11,
      "SeriesTime": "135153.591000",
      "SliceLocation": -55.752392367084,
      "SliceThickness": 2.0,
      "SmallestImagePixelValue": 0,
      "SoftwareVersions": "syngo MR E11",
      "SpacingBetweenSlices": 1.9999999917421,
      "SpecificCharacterSet": "ISO_IR 100",
      "StudyID": "1",
      "StudyTime": "133223.092000",
      "TransmitCoilName": "Body",
      "VariableFlipAngleFlag": "N",
      "WindowCenterWidthExplanation": "Algo1",
      "dBdt": 0.0},
    "slices": {}
  },
  "time": {
    "samples": {
      "AcquisitionNumber": [1, 2, 3, 4, 5, 6, 7, 8, 9, 10, 11, 12, 13, 14, 15, 16, 17, 18, 19, 20, 21, 22, 23, 24, 25, 26, 27, 28, 29, 30, 31, 32, 33, 34, 35, 36, 37, 38, 39, 40, 41, 42, 43, 44, 45, 46, 47, 48, 49, 50, 51, 52, 53, 54, 55, 56, 57, 58, 59, 60, 61, 62, 63, 64, 65, 66, 67, 68, 69, 70, 71, 72, 73, 74, 75, 76, 77, 78, 79, 80, 81, 82, 83, 84, 85, 86, 87, 88, 89, 90, 91, 92, 93, 94, 95, 96, 97, 98, 99, 100, 101, 102, 103, 104, 105, 106, 107, 108, 109, 110, 111, 112, 113, 114, 115, 116, 117, 118, 119, 120, 121, 122, 123, 124, 125, 126, 127, 128, 129, 130, 131, 132, 133, 134, 135, 136, 137, 138, 139, 140, 141, 142, 143, 144, 145, 146, 147, 148, 149, 150, 151, 152, 153, 154, 155, 156, 157, 158, 159, 160, 161, 162, 163, 164, 165, 166, 167, 168, 169, 170, 171, 172, 173, 174, 175, 176, 177, 178, 179, 180, 181, 182, 183, 184, 185, 186, 187, 188, 189, 190, 191, 192, 193, 194, 195, 196, 197, 198, 199, 200, 201, 202, 203, 204, 205, 206, 207, 208, 209, 210, 211, 212, 213, 214, 215, 216, 217, 218, 219, 220, 221, 222, 223, 224, 225, 226, 227, 228, 229, 230, 231, 232, 233, 234, 235, 236, 237, 238, 239, 240, 241, 242, 243, 244, 245, 246, 247, 248, 249, 250, 251, 252, 253, 254, 255, 256, 257, 258, 259, 260, 261, 262, 263, 264, 265, 266, 267, 268, 269, 270, 271, 272, 273, 274, 275, 276, 277, 278, 279, 280, 281, 282, 283, 284, 285, 286, 287, 288, 289, 290, 291, 292, 293, 294, 295, 296, 297, 298, 299, 300, 301, 302, 303, 304, 305, 306, 307, 308, 309, 310, 311, 312, 313, 314, 315, 316, 317, 318, 319, 320, 321, 322, 323, 324, 325, 326, 327, 328, 329, 330, 331, 332, 333, 334, 335, 336, 337, 338, 339, 340, 341, 342, 343, 344, 345, 346, 347, 348, 349, 350, 351, 352, 353, 354, 355, 356, 357, 358, 359, 360, 361, 362, 363, 364, 365, 366, 367, 368, 369, 370, 371, 372, 373, 374, 375, 376, 377, 378, 379, 380, 381, 382, 383, 384, 385, 386, 387, 388, 389, 390, 391, 392, 393, 394, 395, 396, 397, 398, 399, 400, 401, 402, 403, 404, 405, 406, 407, 408, 409, 410, 411, 412, 413, 414, 415, 416, 417, 418, 419, 420, 421, 422, 423, 424, 425, 426, 427],
      "AcquisitionTime": ["135041.292500", "135042.782500", "135044.272500", "135045.762500", "135047.252500", "135048.742500", "135050.232500", "135051.722500", "135053.212500", "135054.702500", "135056.192500", "135057.682500", "135059.172500", "135100.662500", "135102.152500", "135103.642500", "135105.132500", "135106.622500", "135108.112500", "135109.602500", "135111.092500", "135112.582500", "135114.072500", "135115.562500", "135117.052500", "135118.542500", "135120.032500", "135121.522500", "135123.012500", "135124.502500", "135125.992500", "135127.482500", "135128.972500", "135130.462500", "135131.952500", "135133.442500", "135134.932500", "135136.422500", "135137.912500", "135139.402500", "135140.892500", "135142.382500", "135143.872500", "135145.362500", "135146.852500", "135148.342500", "135149.832500", "135151.322500", "135152.812500", "135154.302500", "135155.792500", "135157.282500", "135158.772500", "135200.262500", "135201.752500", "135203.242500", "135204.732500", "135206.222500", "135207.712500", "135209.202500", "135210.692500", "135212.182500", "135213.672500", "135215.162500", "135216.652500", "135218.142500", "135219.632500", "135221.122500", "135222.612500", "135224.102500", "135225.592500", "135227.082500", "135228.572500", "135230.062500", "135231.552500", "135233.042500", "135234.532500", "135236.022500", "135237.512500", "135239.002500", "135240.492500", "135241.982500", "135243.472500", "135244.962500", "135246.452500", "135247.942500", "135249.432500", "135250.922500", "135252.412500", "135253.902500", "135255.392500", "135256.882500", "135258.372500", "135259.862500", "135301.352500", "135302.842500", "135304.332500", "135305.822500", "135307.312500", "135308.802500", "135310.292500", "135311.782500", "135313.272500", "135314.762500", "135316.252500", "135317.742500", "135319.232500", "135320.722500", "135322.212500", "135323.702500", "135325.192500", "135326.682500", "135328.172500", "135329.662500", "135331.152500", "135332.642500", "135334.132500", "135335.622500", "135337.112500", "135338.602500", "135340.092500", "135341.582500", "135343.072500", "135344.562500", "135346.052500", "135347.542500", "135349.032500", "135350.522500", "135352.012500", "135353.502500", "135354.992500", "135356.482500", "135357.972500", "135359.462500", "135400.952500", "135402.442500", "135403.932500", "135405.422500", "135406.912500", "135408.402500", "135409.892500", "135411.382500", "135412.872500", "135414.362500", "135415.852500", "135417.342500", "135418.832500", "135420.322500", "135421.812500", "135423.302500", "135424.792500", "135426.282500", "135427.772500", "135429.262500", "135430.752500", "135432.242500", "135433.732500", "135435.222500", "135436.712500", "135438.202500", "135439.692500", "135441.182500", "135442.672500", "135444.162500", "135445.652500", "135447.142500", "135448.632500", "135450.122500", "135451.612500", "135453.102500", "135454.592500", "135456.082500", "135457.572500", "135459.062500", "135500.552500", "135502.042500", "135503.532500", "135505.022500", "135506.512500", "135508.002500", "135509.492500", "135510.982500", "135512.472500", "135513.962500", "135515.452500", "135516.942500", "135518.432500", "135519.922500", "135521.412500", "135522.902500", "135524.392500", "135525.882500", "135527.372500", "135528.862500", "135530.352500", "135531.842500", "135533.332500", "135534.822500", "135536.312500", "135537.802500", "135539.292500", "135540.782500", "135542.272500", "135543.762500", "135545.252500", "135546.742500", "135548.232500", "135549.722500", "135551.212500", "135552.702500", "135554.192500", "135555.682500", "135557.172500", "135558.662500", "135600.152500", "135601.642500", "135603.132500", "135604.622500", "135606.112500", "135607.602500", "135609.092500", "135610.582500", "135612.072500", "135613.562500", "135615.052500", "135616.542500", "135618.032500", "135619.522500", "135621.012500", "135622.502500", "135623.992500", "135625.482500", "135626.972500", "135628.462500", "135629.952500", "135631.442500", "135632.932500", "135634.422500", "135635.912500", "135637.402500", "135638.892500", "135640.382500", "135641.872500", "135643.362500", "135644.852500", "135646.342500", "135647.832500", "135649.322500", "135650.812500", "135652.302500", "135653.792500", "135655.282500", "135656.772500", "135658.262500", "135659.752500", "135701.242500", "135702.732500", "135704.222500", "135705.712500", "135707.202500", "135708.692500", "135710.182500", "135711.672500", "135713.162500", "135714.652500", "135716.142500", "135717.632500", "135719.122500", "135720.612500", "135722.102500", "135723.592500", "135725.082500", "135726.572500", "135728.062500", "135729.552500", "135731.042500", "135732.532500", "135734.022500", "135735.512500", "135737.002500", "135738.492500", "135739.982500", "135741.472500", "135742.962500", "135744.452500", "135745.942500", "135747.432500", "135748.922500", "135750.412500", "135751.902500", "135753.392500", "135754.882500", "135756.372500", "135757.862500", "135759.352500", "135800.842500", "135802.332500", "135803.822500", "135805.312500", "135806.802500", "135808.292500", "135809.782500", "135811.272500", "135812.762500", "135814.252500", "135815.742500", "135817.232500", "135818.722500", "135820.212500", "135821.702500", "135823.192500", "135824.682500", "135826.172500", "135827.662500", "135829.152500", "135830.642500", "135832.132500", "135833.622500", "135835.112500", "135836.602500", "135838.092500", "135839.582500", "135841.072500", "135842.562500", "135844.052500", "135845.542500", "135847.032500", "135848.522500", "135850.012500", "135851.502500", "135852.992500", "135854.482500", "135855.972500", "135857.462500", "135858.952500", "135900.442500", "135901.932500", "135903.422500", "135904.912500", "135906.402500", "135907.892500", "135909.382500", "135910.872500", "135912.362500", "135913.852500", "135915.342500", "135916.832500", "135918.322500", "135919.812500", "135921.302500", "135922.792500", "135924.282500", "135925.772500", "135927.262500", "135928.752500", "135930.242500", "135931.732500", "135933.222500", "135934.712500", "135936.202500", "135937.692500", "135939.182500", "135940.672500", "135942.162500", "135943.652500", "135945.142500", "135946.632500", "135948.122500", "135949.612500", "135951.102500", "135952.592500", "135954.082500", "135955.572500", "135957.062500", "135958.552500", "140000.042500", "140001.532500", "140003.022500", "140004.512500", "140006.002500", "140007.492500", "140008.982500", "140010.472500", "140011.962500", "140013.452500", "140014.942500", "140016.432500", "140017.922500", "140019.412500", "140020.902500", "140022.392500", "140023.882500", "140025.372500", "140026.862500", "140028.352500", "140029.842500", "140031.332500", "140032.822500", "140034.312500", "140035.802500", "140037.292500", "140038.782500", "140040.272500", "140041.762500", "140043.252500", "140044.742500", "140046.232500", "140047.722500", "140049.212500", "140050.702500", "140052.192500", "140053.682500", "140055.172500", "140056.662500", "140058.152500", "140059.642500", "140101.132500", "140102.622500", "140104.112500", "140105.602500", "140107.092500", "140108.582500", "140110.072500", "140111.562500", "140113.052500", "140114.542500", "140116.032500"],
      "ContentTime": ["135153.593000", "135153.596000", "135153.599000", "135153.601000", "135153.604000", "135153.606000", "135153.609000", "135153.611000", "135153.614000", "135153.616000", "135153.619000", "135153.621000", "135153.624000", "135153.627000", "135153.629000", "135153.637000", "135153.639000", "135233.653000", "135233.656000", "135233.658000", "135233.661000", "135233.663000", "135233.666000", "135233.668000", "135233.671000", "135233.673000", "135233.676000", "135233.678000", "135233.681000", "135233.683000", "135233.686000", "135233.689000", "135233.691000", "135233.694000", "135233.696000", "135233.699000", "135233.701000", "135233.704000", "135233.706000", "135233.709000", "135233.711000", "135233.714000", "135233.716000", "135233.719000", "135233.722000", "135233.725000", "135233.729000", "135233.732000", "135233.735000", "135233.738000", "135233.742000", "135233.744000", "135233.748000", "135233.750000", "135233.753000", "135233.755000", "135253.589000", "135253.592000", "135253.595000", "135253.597000", "135253.600000", "135253.602000", "135253.605000", "135253.607000", "135253.610000", "135253.613000", "135253.615000", "135253.618000", "135253.620000", "135253.622000", "135253.625000", "135253.628000", "135253.630000", "135253.633000", "135253.635000", "135253.638000", "135253.640000", "135313.560000", "135313.563000", "135313.566000", "135313.568000", "135313.571000", "135313.573000", "135313.576000", "135313.578000", "135313.581000", "135313.584000", "135313.586000", "135313.589000", "135313.591000", "135313.594000", "135313.596000", "135313.599000", "135313.602000", "135313.604000", "135313.607000", "135313.609000", "135353.671000", "135353.673000", "135353.676000", "135353.679000", "135353.681000", "135353.684000", "135353.686000", "135353.689000", "135353.691000", "135353.694000", "135353.696000", "135353.699000", "135353.702000", "135353.704000", "135353.708000", "135353.711000", "135353.713000", "135353.716000", "135353.718000", "135353.731000", "135353.733000", "135353.736000", "135353.738000", "135353.741000", "135353.744000", "135353.746000", "135353.749000", "135353.751000", "135353.754000", "135353.756000", "135353.759000", "135433.604000", "135433.607000", "135433.609000", "135433.612000", "135433.615000", "135433.617000", "135433.620000", "135433.622000", "135433.625000", "135433.627000", "135433.630000", "135433.633000", "135433.635000", "135433.638000", "135433.640000", "135433.643000", "135433.645000", "135433.648000", "135433.651000", "135433.653000", "135433.656000", "135433.658000", "135433.661000", "135433.663000", "135433.666000", "135433.668000", "135433.671000", "135513.624000", "135513.627000", "135513.629000", "135513.632000", "135513.634000", "135513.637000", "135513.640000", "135513.642000", "135513.645000", "135513.648000", "135513.650000", "135513.653000", "135513.655000", "135513.658000", "135513.660000", "135513.663000", "135513.666000", "135513.668000", "135513.671000", "135513.673000", "135513.676000", "135513.678000", "135513.681000", "135513.683000", "135513.686000", "135513.689000", "135513.691000", "135553.586000", "135553.589000", "135553.603000", "135553.606000", "135553.608000", "135553.611000", "135553.614000", "135553.617000", "135553.619000", "135553.622000", "135553.625000", "135553.627000", "135553.630000", "135553.632000", "135553.635000", "135553.638000", "135553.640000", "135553.643000", "135553.646000", "135553.648000", "135553.651000", "135553.654000", "135553.656000", "135553.659000", "135553.661000", "135553.664000", "135553.667000", "135633.593000", "135633.596000", "135633.598000", "135633.601000", "135633.604000", "135633.606000", "135633.609000", "135633.611000", "135633.614000", "135633.616000", "135633.619000", "135633.621000", "135633.624000", "135633.626000", "135633.629000", "135633.631000", "135633.634000", "135633.636000", "135633.639000", "135633.642000", "135633.644000", "135633.647000", "135633.649000", "135633.652000", "135633.654000", "135633.657000", "135633.659000", "135713.606000", "135713.609000", "135713.611000", "135713.614000", "135713.616000", "135713.619000", "135713.621000", "135713.624000", "135713.626000", "135713.629000", "135713.632000", "135713.634000", "135713.637000", "135713.639000", "135713.642000", "135713.644000", "135713.647000", "135713.649000", "135713.652000", "135713.654000", "135713.657000", "135713.659000", "135713.662000", "135713.664000", "135713.667000", "135713.669000", "135753.592000", "135753.596000", "135753.598000", "135753.601000", "135753.603000", "135753.606000", "135753.609000", "135753.611000", "135753.614000", "135753.616000", "135753.619000", "135753.621000", "135753.624000", "135753.626000", "135753.629000", "135753.632000", "135753.634000", "135753.637000", "135753.639000", "135753.642000", "135753.644000", "135753.647000", "135753.650000", "135753.652000", "135753.655000", "135753.657000", "135753.660000", "135833.588000", "135833.591000", "135833.594000", "135833.596000", "135833.599000", "135833.601000", "135833.604000", "135833.607000", "135833.609000", "135833.612000", "135833.614000", "135833.617000", "135833.620000", "135833.622000", "135833.625000", "135833.627000", "135833.630000", "135833.633000", "135833.635000", "135833.638000", "135833.640000", "135833.643000", "135833.645000", "135833.648000", "135833.651000", "135833.653000", "135833.656000", "135913.590000", "135913.593000", "135913.596000", "135913.598000", "135913.601000", "135913.604000", "135913.606000", "135913.609000", "135913.611000", "135913.614000", "135913.617000", "135913.620000", "135913.622000", "135913.625000", "135913.627000", "135913.630000", "135913.632000", "135913.635000", "135913.637000", "135913.640000", "135913.642000", "135913.645000", "135913.647000", "135913.650000", "135913.652000", "135913.655000", "135913.658000", "135953.600000", "135953.602000", "135953.605000", "135953.608000", "135953.610000", "135953.613000", "135953.615000", "135953.618000", "135953.620000", "135953.623000", "135953.625000", "135953.628000", "135953.630000", "135953.633000", "135953.635000", "135953.638000", "135953.640000", "135953.643000", "135953.646000", "135953.648000", "135953.651000", "135953.653000", "135953.656000", "135953.658000", "135953.661000", "135953.663000", "135953.666000", "140033.596000", "140033.599000", "140033.602000", "140033.604000", "140033.607000", "140033.609000", "140033.612000", "140033.615000", "140033.617000", "140033.620000", "140033.622000", "140033.625000", "140033.627000", "140033.630000", "140033.633000", "140033.635000", "140033.638000", "140033.640000", "140033.643000", "140033.646000", "140033.648000", "140033.651000", "140033.653000", "140033.656000", "140033.658000", "140033.661000", "140033.664000", "140113.599000", "140113.602000", "140113.604000", "140113.607000", "140113.609000", "140113.612000", "140113.615000", "140113.617000", "140113.620000", "140113.622000", "140113.625000", "140113.627000", "140113.630000", "140113.632000", "140113.635000", "140113.638000", "140113.640000", "140113.643000", "140113.645000", "140113.648000", "140113.650000", "140113.653000", "140113.655000", "140113.658000", "140113.661000", "140113.663000", "140113.666000", "140118.418000", "140118.420000", "140118.423000"],
      "InstanceCreationTime": ["135153.593000", "135153.596000", "135153.599000", "135153.601000", "135153.604000", "135153.606000", "135153.609000", "135153.611000", "135153.614000", "135153.616000", "135153.619000", "135153.621000", "135153.624000", "135153.627000", "135153.629000", "135153.637000", "135153.639000", "135233.653000", "135233.656000", "135233.658000", "135233.661000", "135233.663000", "135233.666000", "135233.668000", "135233.671000", "135233.673000", "135233.676000", "135233.678000", "135233.681000", "135233.683000", "135233.686000", "135233.689000", "135233.691000", "135233.694000", "135233.696000", "135233.699000", "135233.701000", "135233.704000", "135233.706000", "135233.709000", "135233.711000", "135233.714000", "135233.716000", "135233.719000", "135233.722000", "135233.725000", "135233.729000", "135233.732000", "135233.735000", "135233.738000", "135233.742000", "135233.744000", "135233.748000", "135233.750000", "135233.753000", "135233.755000", "135253.589000", "135253.592000", "135253.595000", "135253.597000", "135253.600000", "135253.602000", "135253.605000", "135253.607000", "135253.610000", "135253.613000", "135253.615000", "135253.618000", "135253.620000", "135253.622000", "135253.625000", "135253.628000", "135253.630000", "135253.633000", "135253.635000", "135253.638000", "135253.640000", "135313.560000", "135313.563000", "135313.566000", "135313.568000", "135313.571000", "135313.573000", "135313.576000", "135313.578000", "135313.581000", "135313.584000", "135313.586000", "135313.589000", "135313.591000", "135313.594000", "135313.596000", "135313.599000", "135313.602000", "135313.604000", "135313.607000", "135313.609000", "135353.671000", "135353.673000", "135353.676000", "135353.679000", "135353.681000", "135353.684000", "135353.686000", "135353.689000", "135353.691000", "135353.694000", "135353.696000", "135353.699000", "135353.702000", "135353.704000", "135353.708000", "135353.711000", "135353.713000", "135353.716000", "135353.718000", "135353.731000", "135353.733000", "135353.736000", "135353.738000", "135353.741000", "135353.744000", "135353.746000", "135353.749000", "135353.751000", "135353.754000", "135353.756000", "135353.759000", "135433.604000", "135433.607000", "135433.609000", "135433.612000", "135433.615000", "135433.617000", "135433.620000", "135433.622000", "135433.625000", "135433.627000", "135433.630000", "135433.633000", "135433.635000", "135433.638000", "135433.640000", "135433.643000", "135433.645000", "135433.648000", "135433.651000", "135433.653000", "135433.656000", "135433.658000", "135433.661000", "135433.663000", "135433.666000", "135433.668000", "135433.671000", "135513.624000", "135513.627000", "135513.629000", "135513.632000", "135513.634000", "135513.637000", "135513.640000", "135513.642000", "135513.645000", "135513.648000", "135513.650000", "135513.653000", "135513.655000", "135513.658000", "135513.660000", "135513.663000", "135513.666000", "135513.668000", "135513.671000", "135513.673000", "135513.676000", "135513.678000", "135513.681000", "135513.683000", "135513.686000", "135513.689000", "135513.691000", "135553.586000", "135553.589000", "135553.603000", "135553.606000", "135553.608000", "135553.611000", "135553.614000", "135553.617000", "135553.619000", "135553.622000", "135553.625000", "135553.627000", "135553.630000", "135553.632000", "135553.635000", "135553.638000", "135553.640000", "135553.643000", "135553.646000", "135553.648000", "135553.651000", "135553.654000", "135553.656000", "135553.659000", "135553.661000", "135553.664000", "135553.667000", "135633.593000", "135633.596000", "135633.598000", "135633.601000", "135633.604000", "135633.606000", "135633.609000", "135633.611000", "135633.614000", "135633.616000", "135633.619000", "135633.621000", "135633.624000", "135633.626000", "135633.629000", "135633.631000", "135633.634000", "135633.636000", "135633.639000", "135633.642000", "135633.644000", "135633.647000", "135633.649000", "135633.652000", "135633.654000", "135633.657000", "135633.659000", "135713.606000", "135713.609000", "135713.611000", "135713.614000", "135713.616000", "135713.619000", "135713.621000", "135713.624000", "135713.626000", "135713.629000", "135713.632000", "135713.634000", "135713.637000", "135713.639000", "135713.642000", "135713.644000", "135713.647000", "135713.649000", "135713.652000", "135713.654000", "135713.657000", "135713.659000", "135713.662000", "135713.664000", "135713.667000", "135713.669000", "135753.592000", "135753.596000", "135753.598000", "135753.601000", "135753.603000", "135753.606000", "135753.609000", "135753.611000", "135753.614000", "135753.616000", "135753.619000", "135753.621000", "135753.624000", "135753.626000", "135753.629000", "135753.632000", "135753.634000", "135753.637000", "135753.639000", "135753.642000", "135753.644000", "135753.647000", "135753.650000", "135753.652000", "135753.655000", "135753.657000", "135753.660000", "135833.588000", "135833.591000", "135833.594000", "135833.596000", "135833.599000", "135833.601000", "135833.604000", "135833.607000", "135833.609000", "135833.612000", "135833.614000", "135833.617000", "135833.620000", "135833.622000", "135833.625000", "135833.627000", "135833.630000", "135833.633000", "135833.635000", "135833.638000", "135833.640000", "135833.643000", "135833.645000", "135833.648000", "135833.651000", "135833.653000", "135833.656000", "135913.590000", "135913.593000", "135913.596000", "135913.598000", "135913.601000", "135913.604000", "135913.606000", "135913.609000", "135913.611000", "135913.614000", "135913.617000", "135913.620000", "135913.622000", "135913.625000", "135913.627000", "135913.630000", "135913.632000", "135913.635000", "135913.637000", "135913.640000", "135913.642000", "135913.645000", "135913.647000", "135913.650000", "135913.652000", "135913.655000", "135913.658000", "135953.600000", "135953.602000", "135953.605000", "135953.608000", "135953.610000", "135953.613000", "135953.615000", "135953.618000", "135953.620000", "135953.623000", "135953.625000", "135953.628000", "135953.630000", "135953.633000", "135953.635000", "135953.638000", "135953.640000", "135953.643000", "135953.646000", "135953.648000", "135953.651000", "135953.653000", "135953.656000", "135953.658000", "135953.661000", "135953.663000", "135953.666000", "140033.596000", "140033.599000", "140033.602000", "140033.604000", "140033.607000", "140033.609000", "140033.612000", "140033.615000", "140033.617000", "140033.620000", "140033.622000", "140033.625000", "140033.627000", "140033.630000", "140033.633000", "140033.635000", "140033.638000", "140033.640000", "140033.643000", "140033.646000", "140033.648000", "140033.651000", "140033.653000", "140033.656000", "140033.658000", "140033.661000", "140033.664000", "140113.599000", "140113.602000", "140113.604000", "140113.607000", "140113.609000", "140113.612000", "140113.615000", "140113.617000", "140113.620000", "140113.622000", "140113.625000", "140113.627000", "140113.630000", "140113.632000", "140113.635000", "140113.638000", "140113.640000", "140113.643000", "140113.645000", "140113.648000", "140113.650000", "140113.653000", "140113.655000", "140113.658000", "140113.661000", "140113.663000", "140113.666000", "140118.418000", "140118.420000", "140118.423000"],
