{
  "AcquisitionMatrixPE": 104,
  "AcquisitionNumber": 1,
  "AcquisitionTime": "14:15:24.332500",
  "BandwidthPerPixelPhaseEncode": 17.17,
  "BaseResolution": 104,
  "BodyPartExamined": "BRAIN",
  "CoilString": "HC1-7;NC1_2",
  "ConsistencyInfo": "N4_VE11C_LATEST_20160120",
  "ConversionSoftware": "dcm2niix",
  "ConversionSoftwareVersion": "v1.0.20190902",
  "DerivedVendorReportedEchoSpacing": 0.000560011,
  "DeviceSerialNumber": "167006",
  "DwellTime": 2.1e-06,
  "EchoTime": 0.037,
  "EchoTrainLength": 104,
  "EffectiveEchoSpacing": 0.000560011,
  "FlipAngle": 52,
  "HeudiconvVersion": "0.10.0",
  "ImageComments": "Unaliased_MB4_PE3_LB",
  "ImageOrientationPatientDICOM": [0.99954, 0.0270299, -0.0137309, -0.0301895, 0.845801, -0.532644],
  "ImageType": [
    "ORIGINAL",
    "PRIMARY",
    "M",
    "MB",
    "ND",
    "MOSAIC"
],
  "ImagingFrequency": 123.259,
  "InPlanePhaseEncodingDirectionDICOM": "COL",
  "InstitutionAddress": "Chemin_Queen-Mary_4565_Montreal_District_CA_H3W_1W5",
  "InstitutionName": "IUGM",
  "InstitutionalDepartmentName": "Department",
  "MRAcquisitionType": "2D",
  "MagneticFieldStrength": 3,
  "Manufacturer": "Siemens",
  "ManufacturersModelName": "Prisma_fit",
  "Modality": "MR",
  "MultibandAccelerationFactor": 4,
  "PartialFourier": 1,
  "PatientPosition": "HFS",
  "PercentPhaseFOV": 100,
  "PhaseEncodingDirection": "j",
  "PhaseEncodingSteps": 104,
  "PhaseResolution": 1,
  "PixelBandwidth": 2290,
  "ProcedureStepDescription": "games_mario",
  "ProtocolName": "func_task-mario_run-02",
  "PulseSequenceDetails": "%CustomerSeq%_cmrr_mbep2d_bold",
  "ReceiveCoilActiveElements": "HC1-7;NC1,2",
  "ReceiveCoilName": "HeadNeck_64",
  "ReconMatrixPE": 104,
  "RepetitionTime": 1.49,
  "SAR": 0.0532505,
  "ScanOptions": "FS",
  "ScanningSequence": "EP",
  "SequenceName": "epfid2d1_104",
  "SequenceVariant": "SK_SS",
  "SeriesDescription": "func_task-mario_run-02",
  "SeriesNumber": 13,
  "ShimSetting": [614, -7168, -8870, 210, 23, -159, 0, -14],
  "SliceThickness": 2,
  "SliceTiming": [0, 0.785, 0.0975, 0.8825, 0.195, 0.98, 0.295, 1.0775, 0.3925, 1.175, 0.49, 1.275, 0.5875, 1.3725, 0.685, 0, 0.785, 0.0975, 0.8825, 0.195, 0.98, 0.295, 1.0775, 0.3925, 1.175, 0.49, 1.275, 0.5875, 1.3725, 0.685, 0, 0.785, 0.0975, 0.8825, 0.195, 0.98, 0.295, 1.0775, 0.3925, 1.175, 0.49, 1.275, 0.5875, 1.3725, 0.685, 0, 0.785, 0.0975, 0.8825, 0.195, 0.98, 0.295, 1.0775, 0.3925, 1.175, 0.49, 1.275, 0.5875, 1.3725, 0.685],
  "SoftwareVersions": "syngo_MR_E11",
  "SpacingBetweenSlices": 2,
  "StationName": "MRC35049",
  "TaskName": "mario",
  "TotalReadoutTime": 0.0576811,
  "TxRefAmp": 287.122,
  "WipMemBlock": "20f0324e-1a1e-4301-a33f-fffb82b92b7b||Sequence: R016 ve11c/master r/e634e98; Dec 19 2017 11:00:25 by eja",
  "dcmmeta_affine": [
    [-1.9990806579589844, -0.06037895008921623, 0.005567350424826145, 109.89615631103516],
    [-0.05405976623296738, 1.691601276397705, -1.0656278133392334, -46.15350341796875],
    [-0.02746187523007393, 1.0652884244918823, 1.692455768585205, -95.30474853515625],
    [0.0, 0.0, 0.0, 1.0]
],
  "dcmmeta_reorient_transform": [
    [0.0, -1.0, 0.0, 103.0],
    [1.0, 0.0, 0.0, 0.0],
    [0.0, 0.0, 1.0, 0.0],
    [0.0, 0.0, 0.0, 1.0]
],
  "dcmmeta_shape": [104, 104, 60, 499],
  "dcmmeta_slice_dim": 2,
  "dcmmeta_version": 0.6,
  "global": {
    "const": {
      "AcquisitionMatrix": [104, 0, 0, 104],
      "AngioFlag": "N",
      "BitsAllocated": 16,
      "BitsStored": 16,
      "BodyPartExamined": "BRAIN",
      "Columns": 832,
      "EchoNumbers": 1,
      "EchoTime": 37.0,
      "EchoTrainLength": 104,
      "FlipAngle": 52.0,
      "HighBit": 15,
      "ImageOrientationPatient": [0.99954031770994, 0.02702988400487, -0.0137309374403, -0.0301894753874, 0.84580065258491, -0.5326442073869],
      "ImagePositionPatient": [-809.36454104827, -763.5020628697, 412.18106339783],
      "ImageType": [
        "ORIGINAL",
        "PRIMARY",
        "M",
        "MB",
        "ND",
        "MOSAIC"
],
      "ImagedNucleus": "1H",
      "ImagingFrequency": 123.258924,
      "InPlanePhaseEncodingDirection": "COL",
      "MRAcquisitionType": "2D",
      "MagneticFieldStrength": 3.0,
      "Manufacturer": "SIEMENS",
      "ManufacturerModelName": "Prisma_fit",
      "Modality": "MR",
      "NumberOfAverages": 1.0,
      "NumberOfPhaseEncodingSteps": 104,
      "PercentPhaseFieldOfView": 100.0,
      "PercentSampling": 100.0,
      "PerformedProcedureStepStartTime": "133223.210000",
      "PhotometricInterpretation": "MONOCHROME2",
      "PixelBandwidth": 2290.0,
      "PixelRepresentation": 0,
      "PixelSpacing": [2.0, 2.0],
      "ProtocolName": "func_task-mario_run-02",
      "RepetitionTime": 1490.0,
      "Rows": 832,
      "SAR": 0.05325052972468,
      "SamplesPerPixel": 1,
      "ScanOptions": "FS",
      "ScanningSequence": "EP",
      "SequenceName": "epfid2d1_104",
      "SequenceVariant": [
        "SK",
        "SS"
],
      "SeriesDescription": "func_task-mario_run-02",
      "SeriesNumber": 13,
      "SeriesTime": "141645.934000",
      "SliceLocation": -55.752392367084,
      "SliceThickness": 2.0,
      "SmallestImagePixelValue": 0,
      "SoftwareVersions": "syngo MR E11",
      "SpacingBetweenSlices": 1.9999999917421,
      "SpecificCharacterSet": "ISO_IR 100",
      "StudyID": "1",
      "StudyTime": "133223.092000",
      "TransmitCoilName": "Body",
      "VariableFlipAngleFlag": "N",
      "WindowCenterWidthExplanation": "Algo1",
      "dBdt": 0.0},
    "slices": {}
  },
  "time": {
    "samples": {
      "AcquisitionNumber": [1, 2, 3, 4, 5, 6, 7, 8, 9, 10, 11, 12, 13, 14, 15, 16, 17, 18, 19, 20, 21, 22, 23, 24, 25, 26, 27, 28, 29, 30, 31, 32, 33, 34, 35, 36, 37, 38, 39, 40, 41, 42, 43, 44, 45, 46, 47, 48, 49, 50, 51, 52, 53, 54, 55, 56, 57, 58, 59, 60, 61, 62, 63, 64, 65, 66, 67, 68, 69, 70, 71, 72, 73, 74, 75, 76, 77, 78, 79, 80, 81, 82, 83, 84, 85, 86, 87, 88, 89, 90, 91, 92, 93, 94, 95, 96, 97, 98, 99, 100, 101, 102, 103, 104, 105, 106, 107, 108, 109, 110, 111, 112, 113, 114, 115, 116, 117, 118, 119, 120, 121, 122, 123, 124, 125, 126, 127, 128, 129, 130, 131, 132, 133, 134, 135, 136, 137, 138, 139, 140, 141, 142, 143, 144, 145, 146, 147, 148, 149, 150, 151, 152, 153, 154, 155, 156, 157, 158, 159, 160, 161, 162, 163, 164, 165, 166, 167, 168, 169, 170, 171, 172, 173, 174, 175, 176, 177, 178, 179, 180, 181, 182, 183, 184, 185, 186, 187, 188, 189, 190, 191, 192, 193, 194, 195, 196, 197, 198, 199, 200, 201, 202, 203, 204, 205, 206, 207, 208, 209, 210, 211, 212, 213, 214, 215, 216, 217, 218, 219, 220, 221, 222, 223, 224, 225, 226, 227, 228, 229, 230, 231, 232, 233, 234, 235, 236, 237, 238, 239, 240, 241, 242, 243, 244, 245, 246, 247, 248, 249, 250, 251, 252, 253, 254, 255, 256, 257, 258, 259, 260, 261, 262, 263, 264, 265, 266, 267, 268, 269, 270, 271, 272, 273, 274, 275, 276, 277, 278, 279, 280, 281, 282, 283, 284, 285, 286, 287, 288, 289, 290, 291, 292, 293, 294, 295, 296, 297, 298, 299, 300, 301, 302, 303, 304, 305, 306, 307, 308, 309, 310, 311, 312, 313, 314, 315, 316, 317, 318, 319, 320, 321, 322, 323, 324, 325, 326, 327, 328, 329, 330, 331, 332, 333, 334, 335, 336, 337, 338, 339, 340, 341, 342, 343, 344, 345, 346, 347, 348, 349, 350, 351, 352, 353, 354, 355, 356, 357, 358, 359, 360, 361, 362, 363, 364, 365, 366, 367, 368, 369, 370, 371, 372, 373, 374, 375, 376, 377, 378, 379, 380, 381, 382, 383, 384, 385, 386, 387, 388, 389, 390, 391, 392, 393, 394, 395, 396, 397, 398, 399, 400, 401, 402, 403, 404, 405, 406, 407, 408, 409, 410, 411, 412, 413, 414, 415, 416, 417, 418, 419, 420, 421, 422, 423, 424, 425, 426, 427, 428, 429, 430, 431, 432, 433, 434, 435, 436, 437, 438, 439, 440, 441, 442, 443, 444, 445, 446, 447, 448, 449, 450, 451, 452, 453, 454, 455, 456, 457, 458, 459, 460, 461, 462, 463, 464, 465, 466, 467, 468, 469, 470, 471, 472, 473, 474, 475, 476, 477, 478, 479, 480, 481, 482, 483, 484, 485, 486, 487, 488, 489, 490, 491, 492, 493, 494, 495, 496, 497, 498, 499],
      "AcquisitionTime": ["141524.332500", "141525.822500", "141527.312500", "141528.802500", "141530.292500", "141531.782500", "141533.272500", "141534.762500", "141536.252500", "141537.742500", "141539.232500", "141540.722500", "141542.212500", "141543.702500", "141545.192500", "141546.682500", "141548.172500", "141549.662500", "141551.152500", "141552.642500", "141554.132500", "141555.622500", "141557.112500", "141558.602500", "141600.092500", "141601.582500", "141603.072500", "141604.562500", "141606.052500", "141607.542500", "141609.032500", "141610.522500", "141612.012500", "141613.502500", "141614.992500", "141616.482500", "141617.972500", "141619.462500", "141620.952500", "141622.442500", "141623.932500", "141625.422500", "141626.912500", "141628.402500", "141629.892500", "141631.382500", "141632.872500", "141634.362500", "141635.852500", "141637.342500", "141638.832500", "141640.322500", "141641.812500", "141643.302500", "141644.792500", "141646.282500", "141647.772500", "141649.262500", "141650.752500", "141652.242500", "141653.732500", "141655.222500", "141656.712500", "141658.202500", "141659.692500", "141701.182500", "141702.672500", "141704.162500", "141705.652500", "141707.142500", "141708.632500", "141710.122500", "141711.612500", "141713.102500", "141714.592500", "141716.082500", "141717.572500", "141719.062500", "141720.552500", "141722.042500", "141723.532500", "141725.022500", "141726.512500", "141728.002500", "141729.492500", "141730.982500", "141732.472500", "141733.962500", "141735.452500", "141736.942500", "141738.432500", "141739.922500", "141741.412500", "141742.902500", "141744.392500", "141745.882500", "141747.372500", "141748.862500", "141750.352500", "141751.842500", "141753.332500", "141754.822500", "141756.312500", "141757.802500", "141759.292500", "141800.782500", "141802.272500", "141803.762500", "141805.252500", "141806.742500", "141808.232500", "141809.722500", "141811.212500", "141812.702500", "141814.192500", "141815.682500", "141817.172500", "141818.662500", "141820.152500", "141821.642500", "141823.132500", "141824.622500", "141826.112500", "141827.602500", "141829.092500", "141830.582500", "141832.072500", "141833.562500", "141835.052500", "141836.542500", "141838.032500", "141839.522500", "141841.012500", "141842.502500", "141843.992500", "141845.482500", "141846.972500", "141848.462500", "141849.952500", "141851.442500", "141852.932500", "141854.422500", "141855.912500", "141857.402500", "141858.892500", "141900.382500", "141901.872500", "141903.362500", "141904.852500", "141906.342500", "141907.832500", "141909.322500", "141910.812500", "141912.302500", "141913.792500", "141915.282500", "141916.772500", "141918.262500", "141919.752500", "141921.242500", "141922.732500", "141924.222500", "141925.712500", "141927.202500", "141928.692500", "141930.182500", "141931.672500", "141933.162500", "141934.652500", "141936.142500", "141937.632500", "141939.122500", "141940.612500", "141942.102500", "141943.592500", "141945.082500", "141946.572500", "141948.062500", "141949.552500", "141951.042500", "141952.532500", "141954.022500", "141955.512500", "141957.002500", "141958.492500", "141959.982500", "142001.472500", "142002.962500", "142004.452500", "142005.942500", "142007.432500", "142008.922500", "142010.412500", "142011.902500", "142013.392500", "142014.882500", "142016.372500", "142017.862500", "142019.352500", "142020.842500", "142022.332500", "142023.822500", "142025.312500", "142026.802500", "142028.292500", "142029.782500", "142031.272500", "142032.762500", "142034.252500", "142035.742500", "142037.232500", "142038.722500", "142040.212500", "142041.702500", "142043.192500", "142044.682500", "142046.172500", "142047.662500", "142049.152500", "142050.642500", "142052.132500", "142053.622500", "142055.112500", "142056.602500", "142058.092500", "142059.582500", "142101.072500", "142102.562500", "142104.052500", "142105.542500", "142107.032500", "142108.522500", "142110.012500", "142111.502500", "142112.992500", "142114.482500", "142115.972500", "142117.462500", "142118.952500", "142120.442500", "142121.932500", "142123.422500", "142124.912500", "142126.402500", "142127.892500", "142129.382500", "142130.872500", "142132.362500", "142133.852500", "142135.342500", "142136.832500", "142138.322500", "142139.812500", "142141.302500", "142142.792500", "142144.282500", "142145.772500", "142147.262500", "142148.752500", "142150.242500", "142151.732500", "142153.222500", "142154.712500", "142156.202500", "142157.692500", "142159.182500", "142200.672500", "142202.162500", "142203.652500", "142205.142500", "142206.632500", "142208.122500", "142209.612500", "142211.102500", "142212.592500", "142214.082500", "142215.572500", "142217.062500", "142218.552500", "142220.042500", "142221.532500", "142223.022500", "142224.512500", "142226.002500", "142227.492500", "142228.982500", "142230.472500", "142231.962500", "142233.452500", "142234.942500", "142236.432500", "142237.922500", "142239.412500", "142240.902500", "142242.392500", "142243.882500", "142245.372500", "142246.862500", "142248.352500", "142249.842500", "142251.332500", "142252.822500", "142254.312500", "142255.802500", "142257.292500", "142258.782500", "142300.272500", "142301.762500", "142303.252500", "142304.742500", "142306.232500", "142307.722500", "142309.212500", "142310.702500", "142312.192500", "142313.682500", "142315.172500", "142316.662500", "142318.152500", "142319.642500", "142321.132500", "142322.622500", "142324.112500", "142325.602500", "142327.092500", "142328.582500", "142330.072500", "142331.562500", "142333.052500", "142334.542500", "142336.032500", "142337.522500", "142339.012500", "142340.502500", "142341.992500", "142343.482500", "142344.972500", "142346.462500", "142347.952500", "142349.442500", "142350.932500", "142352.422500", "142353.912500", "142355.402500", "142356.892500", "142358.382500", "142359.872500", "142401.362500", "142402.852500", "142404.342500", "142405.832500", "142407.322500", "142408.812500", "142410.302500", "142411.792500", "142413.282500", "142414.772500", "142416.262500", "142417.752500", "142419.242500", "142420.732500", "142422.222500", "142423.712500", "142425.202500", "142426.692500", "142428.182500", "142429.672500", "142431.162500", "142432.652500", "142434.142500", "142435.632500", "142437.122500", "142438.612500", "142440.102500", "142441.592500", "142443.082500", "142444.572500", "142446.062500", "142447.552500", "142449.042500", "142450.532500", "142452.022500", "142453.512500", "142455.002500", "142456.492500", "142457.982500", "142459.472500", "142500.962500", "142502.452500", "142503.942500", "142505.432500", "142506.922500", "142508.412500", "142509.902500", "142511.392500", "142512.882500", "142514.372500", "142515.862500", "142517.352500", "142518.842500", "142520.332500", "142521.822500", "142523.312500", "142524.802500", "142526.292500", "142527.782500", "142529.272500", "142530.762500", "142532.252500", "142533.742500", "142535.232500", "142536.722500", "142538.212500", "142539.702500", "142541.192500", "142542.682500", "142544.172500", "142545.662500", "142547.152500", "142548.642500", "142550.132500", "142551.622500", "142553.112500", "142554.602500", "142556.092500", "142557.582500", "142559.072500", "142600.562500", "142602.052500", "142603.542500", "142605.032500", "142606.522500", "142608.012500", "142609.502500", "142610.992500", "142612.482500", "142613.972500", "142615.462500", "142616.952500", "142618.442500", "142619.932500", "142621.422500", "142622.912500", "142624.402500", "142625.892500", "142627.382500", "142628.872500", "142630.362500", "142631.852500", "142633.342500", "142634.832500", "142636.322500", "142637.812500", "142639.302500", "142640.792500", "142642.282500", "142643.772500", "142645.262500", "142646.752500", "142648.242500", "142649.732500", "142651.222500", "142652.712500", "142654.202500", "142655.692500", "142657.182500", "142658.672500", "142700.162500", "142701.652500", "142703.142500", "142704.632500", "142706.122500", "142707.612500", "142709.102500", "142710.592500", "142712.082500", "142713.572500", "142715.062500", "142716.552500", "142718.042500", "142719.532500", "142721.022500", "142722.512500", "142724.002500", "142725.492500", "142726.982500", "142728.472500", "142729.962500", "142731.452500", "142732.942500", "142734.432500", "142735.922500", "142737.412500", "142738.902500", "142740.392500", "142741.882500", "142743.372500", "142744.862500", "142746.352500"],
      "ContentTime": ["141645.938000", "141645.942000", "141645.946000", "141645.949000", "141645.954000", "141645.957000", "141645.971000", "141645.975000", "141645.979000", "141645.982000", "141645.985000", "141645.989000", "141645.992000", "141645.995000", "141646.000000", "141646.003000", "141646.006000", "141646.010000", "141646.013000", "141646.016000", "141646.020000", "141646.023000", "141646.030000", "141646.033000", "141646.037000", "141646.040000", "141646.043000", "141705.901000", "141705.905000", "141705.908000", "141705.912000", "141705.915000", "141705.919000", "141705.929000", "141705.932000", "141705.935000", "141705.939000", "141705.942000", "141705.945000", "141705.955000", "141705.958000", "141705.961000", "141705.965000", "141705.969000", "141705.972000", "141705.976000", "141705.979000", "141705.983000", "141725.901000", "141725.905000", "141725.908000", "141725.912000", "141725.915000", "141725.919000", "141725.922000", "141725.925000", "141725.936000", "141725.940000", "141725.949000", "141725.953000", "141725.956000", "141725.960000", "141725.963000", "141725.966000", "141725.970000", "141725.973000", "141725.976000", "141725.980000", "141745.901000", "141745.905000", "141745.908000", "141745.912000", "141745.915000", "141745.919000", "141745.922000", "141745.925000", "141745.929000", "141745.940000", "141745.944000", "141745.947000", "141745.950000", "141745.954000", "141745.957000", "141745.960000", "141745.964000", "141745.967000", "141745.971000", "141745.974000", "141825.901000", "141825.905000", "141825.908000", "141825.912000", "141825.915000", "141825.919000", "141825.922000", "141825.925000", "141825.929000", "141825.932000", "141825.935000", "141825.939000", "141825.942000", "141825.946000", "141825.949000", "141825.952000", "141825.956000", "141825.977000", "141825.980000", "141825.983000", "141825.987000", "141825.990000", "141825.993000", "141825.997000", "141826.001000", "141826.005000", "141826.008000", "141826.011000", "141826.015000", "141826.018000", "141826.022000", "141826.025000", "141826.029000", "141905.901000", "141905.905000", "141905.908000", "141905.912000", "141905.915000", "141905.925000", "141905.928000", "141905.932000", "141905.935000", "141905.939000", "141905.942000", "141905.945000", "141905.949000", "141905.952000", "141905.955000", "141905.959000", "141905.962000", "141905.966000", "141905.969000", "141905.973000", "141905.977000", "141905.980000", "141905.983000", "141905.987000", "141905.990000", "141905.993000", "141905.997000", "141945.901000", "141945.905000", "141945.909000", "141945.912000", "141945.915000", "141945.919000", "141945.922000", "141945.926000", "141945.929000", "141945.932000", "141945.936000", "141945.939000", "141945.943000", "141945.946000", "141945.949000", "141945.953000", "141945.956000", "141945.960000", "141945.964000", "141945.968000", "141945.972000", "141945.976000", "141945.979000", "141945.996000", "141946.001000", "141946.005000", "142025.901000", "142025.905000", "142025.908000", "142025.912000", "142025.915000", "142025.918000", "142025.922000", "142025.925000", "142025.929000", "142025.932000", "142025.935000", "142025.939000", "142025.942000", "142025.946000", "142025.949000", "142025.952000", "142025.956000", "142025.959000", "142025.963000", "142025.966000", "142025.969000", "142025.973000", "142025.976000", "142025.979000", "142025.983000", "142025.986000", "142025.990000", "142105.901000", "142105.905000", "142105.908000", "142105.912000", "142105.915000", "142105.918000", "142105.922000", "142105.925000", "142105.929000", "142105.932000", "142105.936000", "142105.939000", "142105.942000", "142105.946000", "142105.949000", "142105.953000", "142105.956000", "142105.959000", "142105.963000", "142105.966000", "142105.970000", "142105.973000", "142105.977000", "142105.980000", "142105.983000", "142105.987000", "142105.990000", "142125.902000", "142125.906000", "142125.909000", "142125.913000", "142125.916000", "142125.920000", "142125.923000", "142125.926000", "142125.930000", "142125.933000", "142125.937000", "142125.940000", "142125.943000", "142125.947000", "142205.901000", "142205.905000", "142205.908000", "142205.912000", "142205.915000", "142205.919000", "142205.922000", "142205.925000", "142205.929000", "142205.932000", "142205.935000", "142205.939000", "142205.942000", "142205.946000", "142205.949000", "142205.953000", "142205.956000", "142205.960000", "142205.963000", "142205.967000", "142205.970000", "142205.973000", "142205.977000", "142205.980000", "142205.983000", "142205.987000", "142245.901000", "142245.905000", "142245.908000", "142245.912000", "142245.915000", "142245.919000", "142245.922000", "142245.925000", "142245.929000", "142245.932000", "142245.936000", "142245.939000", "142245.942000", "142245.946000", "142245.949000", "142245.953000", "142245.956000", "142245.959000", "142245.963000", "142245.966000", "142245.970000", "142245.973000", "142245.976000", "142245.980000", "142245.983000", "142245.986000", "142245.990000", "142325.901000", "142325.905000", "142325.908000", "142325.912000", "142325.916000", "142325.919000", "142325.923000", "142325.926000", "142325.929000", "142325.933000", "142325.936000", "142325.940000", "142325.943000", "142325.946000", "142325.950000", "142325.953000", "142325.957000", "142325.960000", "142325.963000", "142325.967000", "142325.970000", "142325.974000", "142325.977000", "142325.981000", "142325.985000", "142325.988000", "142325.992000", "142405.901000", "142405.905000", "142405.909000", "142405.912000", "142405.915000", "142405.919000", "142405.922000", "142405.926000", "142405.929000", "142405.932000", "142405.936000", "142405.939000", "142405.943000", "142405.946000", "142405.949000", "142405.953000", "142405.956000", "142405.960000", "142405.963000", "142405.966000", "142405.970000", "142405.973000", "142405.977000", "142405.980000", "142405.983000", "142405.987000", "142405.990000", "142445.901000", "142445.905000", "142445.908000", "142445.912000", "142445.915000", "142445.919000", "142445.922000", "142445.925000", "142445.929000", "142445.932000", "142445.936000", "142445.939000", "142445.943000", "142445.946000", "142445.949000", "142445.953000", "142445.956000", "142445.960000", "142445.963000", "142445.966000", "142445.970000", "142445.973000", "142445.977000", "142445.980000", "142445.985000", "142445.988000", "142445.992000", "142525.918000", "142525.922000", "142525.925000", "142525.929000", "142525.932000", "142525.935000", "142525.939000", "142525.942000", "142525.945000", "142525.949000", "142525.952000", "142525.956000", "142525.959000", "142525.962000", "142525.966000", "142525.969000", "142525.972000", "142525.976000", "142525.979000", "142525.983000", "142525.986000", "142525.989000", "142525.993000", "142525.996000", "142526.000000", "142526.004000", "142526.007000", "142605.903000", "142605.908000", "142605.913000", "142605.917000", "142605.921000", "142605.925000", "142605.929000", "142605.933000", "142605.937000", "142605.940000", "142605.943000", "142605.947000", "142605.951000", "142605.954000", "142605.957000", "142605.961000", "142605.964000", "142605.968000", "142605.971000", "142605.974000", "142605.978000", "142605.981000", "142605.985000", "142605.988000", "142605.991000", "142605.995000", "142645.902000", "142645.905000", "142645.909000", "142645.912000", "142645.916000", "142645.924000", "142645.927000", "142645.931000", "142645.934000", "142645.938000", "142645.941000", "142645.945000", "142645.948000", "142645.951000", "142645.955000", "142645.958000", "142645.962000", "142645.965000", "142645.969000", "142645.972000", "142645.975000", "142645.979000", "142645.982000", "142645.986000", "142645.989000", "142645.992000", "142645.996000", "142725.901000", "142725.905000", "142725.909000", "142725.912000", "142725.915000", "142725.919000", "142725.922000", "142725.926000", "142725.929000", "142725.932000", "142725.936000", "142725.939000", "142725.943000", "142725.961000", "142725.965000", "142725.968000", "142725.971000", "142725.975000", "142725.978000", "142725.982000", "142725.985000", "142725.988000", "142725.992000", "142725.995000", "142726.000000", "142726.003000", "142726.006000", "142749.530000", "142749.534000", "142749.537000", "142749.541000", "142749.544000", "142749.547000", "142749.551000", "142749.554000", "142749.558000", "142749.561000", "142749.565000", "142749.568000", "142749.572000", "142749.575000", "142749.578000", "142749.582000"],
