{
  "AcquisitionMatrixPE": 104,
  "AcquisitionNumber": 1,
  "AcquisitionTime": "13:50:41.292500",
  "BandwidthPerPixelPhaseEncode": 17.17,
  "BaseResolution": 104,
  "BodyPartExamined": "BRAIN",
  "CoilString": "HC1-7;NC1_2",
  "ConsistencyInfo": "N4_VE11C_LATEST_20160120",
  "ConversionSoftware": "dcm2niix",
  "ConversionSoftwareVersion": "v1.0.20190902",
  "DerivedVendorReportedEchoSpacing": 0.000560011,
  "DeviceSerialNumber": "167006",
  "DwellTime": 2.1e-06,
  "EchoTime": 0.037,
  "EchoTrainLength": 104,
  "EffectiveEchoSpacing": 0.000560011,
  "FlipAngle": 52,
  "HeudiconvVersion": "0.10.0",
  "ImageComments": "Unaliased_MB4_PE3_LB",
  "ImageOrientationPatientDICOM": [0.99954, 0.0270299, -0.0137309, -0.0301895, 0.845801, -0.532644],
  "ImageType": [
    "ORIGINAL",
    "PRIMARY",
    "M",
    "MB",
    "ND",
    "MOSAIC"
],
  "ImagingFrequency": 123.259,
  "InPlanePhaseEncodingDirectionDICOM": "COL",
  "InstitutionAddress": "Chemin_Queen-Mary_4565_Montreal_District_CA_H3W_1W5",
  "InstitutionName": "IUGM",
  "InstitutionalDepartmentName": "Department",
  "MRAcquisitionType": "2D",
  "MagneticFieldStrength": 3,
  "Manufacturer": "Siemens",
  "ManufacturersModelName": "Prisma_fit",
  "Modality": "MR",
  "MultibandAccelerationFactor": 4,
  "PartialFourier": 1,
  "PatientPosition": "HFS",
  "PercentPhaseFOV": 100,
  "PhaseEncodingDirection": "j",
  "PhaseEncodingSteps": 104,
  "PhaseResolution": 1,
  "PixelBandwidth": 2290,
  "ProcedureStepDescription": "games_mario",
  "ProtocolName": "func_task-mario_run-01",
  "PulseSequenceDetails": "%CustomerSeq%_cmrr_mbep2d_bold",
  "ReceiveCoilActiveElements": "HC1-7;NC1,2",
  "ReceiveCoilName": "HeadNeck_64",
  "ReconMatrixPE": 104,
  "RepetitionTime": 1.49,
  "SAR": 0.0532505,
  "ScanOptions": "FS",
  "ScanningSequence": "EP",
  "SequenceName": "epfid2d1_104",
  "SequenceVariant": "SK_SS",
  "SeriesDescription": "func_task-mario_run-01",
  "SeriesNumber": 10,
  "ShimSetting": [614, -7168, -8870, 210, 23, -159, 0, -14],
  "SliceThickness": 2,
  "SliceTiming": [0, 0.7825, 0.0975, 0.88, 0.195, 0.98, 0.2925, 1.0775, 0.39, 1.175, 0.49, 1.2725, 0.5875, 1.37, 0.685, 0, 0.7825, 0.0975, 0.88, 0.195, 0.98, 0.2925, 1.0775, 0.39, 1.175, 0.49, 1.2725, 0.5875, 1.37, 0.685, 0, 0.7825, 0.0975, 0.88, 0.195, 0.98, 0.2925, 1.0775, 0.39, 1.175, 0.49, 1.2725, 0.5875, 1.37, 0.685, 0, 0.7825, 0.0975, 0.88, 0.195, 0.98, 0.2925, 1.0775, 0.39, 1.175, 0.49, 1.2725, 0.5875, 1.37, 0.685],
  "SoftwareVersions": "syngo_MR_E11",
  "SpacingBetweenSlices": 2,
  "StationName": "MRC35049",
  "TaskName": "mario",
  "TotalReadoutTime": 0.0576811,
  "TxRefAmp": 287.122,
  "WipMemBlock": "573f470f-e1c3-45fa-8a40-a1f0d7352e4a||Sequence: R016 ve11c/master r/e634e98; Dec 19 2017 11:00:25 by eja",
  "dcmmeta_affine": [
    [-1.9990806579589844, -0.06037895008921623, 0.005567350424826145, 109.89615631103516],
    [-0.05405976623296738, 1.691601276397705, -1.0656278133392334, -46.15350341796875],
    [-0.02746187523007393, 1.0652884244918823, 1.692455768585205, -95.30474853515625],
    [0.0, 0.0, 0.0, 1.0]
],
  "dcmmeta_reorient_transform": [
    [0.0, -1.0, 0.0, 103.0],
    [1.0, 0.0, 0.0, 0.0],
    [0.0, 0.0, 1.0, 0.0],
    [0.0, 0.0, 0.0, 1.0]
],
  "dcmmeta_shape": [104, 104, 60, 427],
  "dcmmeta_slice_dim": 2,
  "dcmmeta_version": 0.6,
  "global": {
    "const": {
      "AcquisitionMatrix": [104, 0, 0, 104],
      "AngioFlag": "N",
      "BitsAllocated": 16,
      "BitsStored": 16,
      "BodyPartExamined": "BRAIN",
      "Columns": 832,
      "EchoNumbers": 1,
      "EchoTime": 37.0,
      "EchoTrainLength": 104,
      "FlipAngle": 52.0,
      "HighBit": 15,
      "ImageOrientationPatient": [0.99954031770994, 0.02702988400487, -0.0137309374403, -0.0301894753874, 0.84580065258491, -0.5326442073869],
      "ImagePositionPatient": [-809.36454104827, -763.5020628697, 412.18106339783],
      "ImageType": [
        "ORIGINAL",
        "PRIMARY",
        "M",
        "MB",
        "ND",
        "MOSAIC"
],
      "ImagedNucleus": "1H",
      "ImagingFrequency": 123.258919,
      "InPlanePhaseEncodingDirection": "COL",
      "MRAcquisitionType": "2D",
      "MagneticFieldStrength": 3.0,
      "Manufacturer": "SIEMENS",
      "ManufacturerModelName": "Prisma_fit",
      "Modality": "MR",
      "NumberOfAverages": 1.0,
      "NumberOfPhaseEncodingSteps": 104,
      "PercentPhaseFieldOfView": 100.0,
      "PercentSampling": 100.0,
      "PerformedProcedureStepStartTime": "133223.210000",
      "PhotometricInterpretation": "MONOCHROME2",
      "PixelBandwidth": 2290.0,
      "PixelRepresentation": 0,
      "PixelSpacing": [2.0, 2.0],
      "ProtocolName": "func_task-mario_run-01",
      "RepetitionTime": 1490.0,
      "Rows": 832,
      "SAR": 0.05325052972468,
      "SamplesPerPixel": 1,
      "ScanOptions": "FS",
      "ScanningSequence": "EP",
      "SequenceName": "epfid2d1_104",
      "SequenceVariant": [
        "SK",
        "SS"
],
      "SeriesDescription": "func_task-mario_run-01",
      "SeriesNumber": 10,
      "SeriesTime": "135153.486000",
      "SliceLocation": -55.752392367084,
      "SliceThickness": 2.0,
      "SmallestImagePixelValue": 0,
      "SoftwareVersions": "syngo MR E11",
      "SpacingBetweenSlices": 1.9999999917421,
      "SpecificCharacterSet": "ISO_IR 100",
      "StudyID": "1",
      "StudyTime": "133223.092000",
      "TransmitCoilName": "Body",
      "VariableFlipAngleFlag": "N",
      "WindowCenterWidthExplanation": "Algo1",
      "dBdt": 0.0},
    "slices": {}
  },
  "time": {
    "samples": {
      "AcquisitionNumber": [1, 2, 3, 4, 5, 6, 7, 8, 9, 10, 11, 12, 13, 14, 15, 16, 17, 18, 19, 20, 21, 22, 23, 24, 25, 26, 27, 28, 29, 30, 31, 32, 33, 34, 35, 36, 37, 38, 39, 40, 41, 42, 43, 44, 45, 46, 47, 48, 49, 50, 51, 52, 53, 54, 55, 56, 57, 58, 59, 60, 61, 62, 63, 64, 65, 66, 67, 68, 69, 70, 71, 72, 73, 74, 75, 76, 77, 78, 79, 80, 81, 82, 83, 84, 85, 86, 87, 88, 89, 90, 91, 92, 93, 94, 95, 96, 97, 98, 99, 100, 101, 102, 103, 104, 105, 106, 107, 108, 109, 110, 111, 112, 113, 114, 115, 116, 117, 118, 119, 120, 121, 122, 123, 124, 125, 126, 127, 128, 129, 130, 131, 132, 133, 134, 135, 136, 137, 138, 139, 140, 141, 142, 143, 144, 145, 146, 147, 148, 149, 150, 151, 152, 153, 154, 155, 156, 157, 158, 159, 160, 161, 162, 163, 164, 165, 166, 167, 168, 169, 170, 171, 172, 173, 174, 175, 176, 177, 178, 179, 180, 181, 182, 183, 184, 185, 186, 187, 188, 189, 190, 191, 192, 193, 194, 195, 196, 197, 198, 199, 200, 201, 202, 203, 204, 205, 206, 207, 208, 209, 210, 211, 212, 213, 214, 215, 216, 217, 218, 219, 220, 221, 222, 223, 224, 225, 226, 227, 228, 229, 230, 231, 232, 233, 234, 235, 236, 237, 238, 239, 240, 241, 242, 243, 244, 245, 246, 247, 248, 249, 250, 251, 252, 253, 254, 255, 256, 257, 258, 259, 260, 261, 262, 263, 264, 265, 266, 267, 268, 269, 270, 271, 272, 273, 274, 275, 276, 277, 278, 279, 280, 281, 282, 283, 284, 285, 286, 287, 288, 289, 290, 291, 292, 293, 294, 295, 296, 297, 298, 299, 300, 301, 302, 303, 304, 305, 306, 307, 308, 309, 310, 311, 312, 313, 314, 315, 316, 317, 318, 319, 320, 321, 322, 323, 324, 325, 326, 327, 328, 329, 330, 331, 332, 333, 334, 335, 336, 337, 338, 339, 340, 341, 342, 343, 344, 345, 346, 347, 348, 349, 350, 351, 352, 353, 354, 355, 356, 357, 358, 359, 360, 361, 362, 363, 364, 365, 366, 367, 368, 369, 370, 371, 372, 373, 374, 375, 376, 377, 378, 379, 380, 381, 382, 383, 384, 385, 386, 387, 388, 389, 390, 391, 392, 393, 394, 395, 396, 397, 398, 399, 400, 401, 402, 403, 404, 405, 406, 407, 408, 409, 410, 411, 412, 413, 414, 415, 416, 417, 418, 419, 420, 421, 422, 423, 424, 425, 426, 427],
      "AcquisitionTime": ["135041.292500", "135042.782500", "135044.272500", "135045.762500", "135047.252500", "135048.742500", "135050.232500", "135051.722500", "135053.212500", "135054.702500", "135056.192500", "135057.682500", "135059.172500", "135100.662500", "135102.152500", "135103.642500", "135105.132500", "135106.622500", "135108.112500", "135109.602500", "135111.092500", "135112.582500", "135114.072500", "135115.562500", "135117.052500", "135118.542500", "135120.032500", "135121.522500", "135123.012500", "135124.502500", "135125.992500", "135127.482500", "135128.972500", "135130.462500", "135131.952500", "135133.442500", "135134.932500", "135136.422500", "135137.912500", "135139.402500", "135140.892500", "135142.382500", "135143.872500", "135145.362500", "135146.852500", "135148.342500", "135149.832500", "135151.322500", "135152.812500", "135154.302500", "135155.792500", "135157.282500", "135158.772500", "135200.262500", "135201.752500", "135203.242500", "135204.732500", "135206.222500", "135207.712500", "135209.202500", "135210.692500", "135212.182500", "135213.672500", "135215.162500", "135216.652500", "135218.142500", "135219.632500", "135221.122500", "135222.612500", "135224.102500", "135225.592500", "135227.082500", "135228.572500", "135230.062500", "135231.552500", "135233.042500", "135234.532500", "135236.022500", "135237.512500", "135239.002500", "135240.492500", "135241.982500", "135243.472500", "135244.962500", "135246.452500", "135247.942500", "135249.432500", "135250.922500", "135252.412500", "135253.902500", "135255.392500", "135256.882500", "135258.372500", "135259.862500", "135301.352500", "135302.842500", "135304.332500", "135305.822500", "135307.312500", "135308.802500", "135310.292500", "135311.782500", "135313.272500", "135314.762500", "135316.252500", "135317.742500", "135319.232500", "135320.722500", "135322.212500", "135323.702500", "135325.192500", "135326.682500", "135328.172500", "135329.662500", "135331.152500", "135332.642500", "135334.132500", "135335.622500", "135337.112500", "135338.602500", "135340.092500", "135341.582500", "135343.072500", "135344.562500", "135346.052500", "135347.542500", "135349.032500", "135350.522500", "135352.012500", "135353.502500", "135354.992500", "135356.482500", "135357.972500", "135359.462500", "135400.952500", "135402.442500", "135403.932500", "135405.422500", "135406.912500", "135408.402500", "135409.892500", "135411.382500", "135412.872500", "135414.362500", "135415.852500", "135417.342500", "135418.832500", "135420.322500", "135421.812500", "135423.302500", "135424.792500", "135426.282500", "135427.772500", "135429.262500", "135430.752500", "135432.242500", "135433.732500", "135435.222500", "135436.712500", "135438.202500", "135439.692500", "135441.182500", "135442.672500", "135444.162500", "135445.652500", "135447.142500", "135448.632500", "135450.122500", "135451.612500", "135453.102500", "135454.592500", "135456.082500", "135457.572500", "135459.062500", "135500.552500", "135502.042500", "135503.532500", "135505.022500", "135506.512500", "135508.002500", "135509.492500", "135510.982500", "135512.472500", "135513.962500", "135515.452500", "135516.942500", "135518.432500", "135519.922500", "135521.412500", "135522.902500", "135524.392500", "135525.882500", "135527.372500", "135528.862500", "135530.352500", "135531.842500", "135533.332500", "135534.822500", "135536.312500", "135537.802500", "135539.292500", "135540.782500", "135542.272500", "135543.762500", "135545.252500", "135546.742500", "135548.232500", "135549.722500", "135551.212500", "135552.702500", "135554.192500", "135555.682500", "135557.172500", "135558.662500", "135600.152500", "135601.642500", "135603.132500", "135604.622500", "135606.112500", "135607.602500", "135609.092500", "135610.582500", "135612.072500", "135613.562500", "135615.052500", "135616.542500", "135618.032500", "135619.522500", "135621.012500", "135622.502500", "135623.992500", "135625.482500", "135626.972500", "135628.462500", "135629.952500", "135631.442500", "135632.932500", "135634.422500", "135635.912500", "135637.402500", "135638.892500", "135640.382500", "135641.872500", "135643.362500", "135644.852500", "135646.342500", "135647.832500", "135649.322500", "135650.812500", "135652.302500", "135653.792500", "135655.282500", "135656.772500", "135658.262500", "135659.752500", "135701.242500", "135702.732500", "135704.222500", "135705.712500", "135707.202500", "135708.692500", "135710.182500", "135711.672500", "135713.162500", "135714.652500", "135716.142500", "135717.632500", "135719.122500", "135720.612500", "135722.102500", "135723.592500", "135725.082500", "135726.572500", "135728.062500", "135729.552500", "135731.042500", "135732.532500", "135734.022500", "135735.512500", "135737.002500", "135738.492500", "135739.982500", "135741.472500", "135742.962500", "135744.452500", "135745.942500", "135747.432500", "135748.922500", "135750.412500", "135751.902500", "135753.392500", "135754.882500", "135756.372500", "135757.862500", "135759.352500", "135800.842500", "135802.332500", "135803.822500", "135805.312500", "135806.802500", "135808.292500", "135809.782500", "135811.272500", "135812.762500", "135814.252500", "135815.742500", "135817.232500", "135818.722500", "135820.212500", "135821.702500", "135823.192500", "135824.682500", "135826.172500", "135827.662500", "135829.152500", "135830.642500", "135832.132500", "135833.622500", "135835.112500", "135836.602500", "135838.092500", "135839.582500", "135841.072500", "135842.562500", "135844.052500", "135845.542500", "135847.032500", "135848.522500", "135850.012500", "135851.502500", "135852.992500", "135854.482500", "135855.972500", "135857.462500", "135858.952500", "135900.442500", "135901.932500", "135903.422500", "135904.912500", "135906.402500", "135907.892500", "135909.382500", "135910.872500", "135912.362500", "135913.852500", "135915.342500", "135916.832500", "135918.322500", "135919.812500", "135921.302500", "135922.792500", "135924.282500", "135925.772500", "135927.262500", "135928.752500", "135930.242500", "135931.732500", "135933.222500", "135934.712500", "135936.202500", "135937.692500", "135939.182500", "135940.672500", "135942.162500", "135943.652500", "135945.142500", "135946.632500", "135948.122500", "135949.612500", "135951.102500", "135952.592500", "135954.082500", "135955.572500", "135957.062500", "135958.552500", "140000.042500", "140001.532500", "140003.022500", "140004.512500", "140006.002500", "140007.492500", "140008.982500", "140010.472500", "140011.962500", "140013.452500", "140014.942500", "140016.432500", "140017.922500", "140019.412500", "140020.902500", "140022.392500", "140023.882500", "140025.372500", "140026.862500", "140028.352500", "140029.842500", "140031.332500", "140032.822500", "140034.312500", "140035.802500", "140037.292500", "140038.782500", "140040.272500", "140041.762500", "140043.252500", "140044.742500", "140046.232500", "140047.722500", "140049.212500", "140050.702500", "140052.192500", "140053.682500", "140055.172500", "140056.662500", "140058.152500", "140059.642500", "140101.132500", "140102.622500", "140104.112500", "140105.602500", "140107.092500", "140108.582500", "140110.072500", "140111.562500", "140113.052500", "140114.542500", "140116.032500"],
      "ContentTime": ["135153.490000", "135153.493000", "135153.497000", "135153.500000", "135153.504000", "135153.507000", "135153.510000", "135153.514000", "135153.517000", "135153.526000", "135153.530000", "135153.533000", "135153.536000", "135153.540000", "135153.543000", "135153.547000", "135153.550000", "135233.445000", "135233.449000", "135233.453000", "135233.456000", "135233.459000", "135233.469000", "135233.472000", "135233.476000", "135233.479000", "135233.482000", "135233.486000", "135233.489000", "135233.492000", "135233.496000", "135233.499000", "135233.502000", "135233.506000", "135233.509000", "135233.513000", "135233.516000", "135233.519000", "135233.523000", "135233.526000", "135233.530000", "135233.533000", "135233.536000", "135233.540000", "135233.543000", "135233.546000", "135233.550000", "135233.553000", "135233.557000", "135233.560000", "135233.563000", "135233.567000", "135233.570000", "135233.574000", "135233.577000", "135233.580000", "135253.445000", "135253.449000", "135253.452000", "135253.456000", "135253.459000", "135253.462000", "135253.466000", "135253.469000", "135253.473000", "135253.476000", "135253.479000", "135253.483000", "135253.486000", "135253.489000", "135253.493000", "135253.496000", "135253.509000", "135253.512000", "135253.516000", "135253.519000", "135253.523000", "135313.445000", "135313.449000", "135313.452000", "135313.456000", "135313.459000", "135313.463000", "135313.466000", "135313.469000", "135313.473000", "135313.476000", "135313.480000", "135313.484000", "135313.487000", "135313.491000", "135313.494000", "135313.498000", "135313.501000", "135313.504000", "135313.508000", "135313.511000", "135353.445000", "135353.449000", "135353.452000", "135353.456000", "135353.459000", "135353.463000", "135353.466000", "135353.469000", "135353.473000", "135353.476000", "135353.480000", "135353.483000", "135353.486000", "135353.490000", "135353.493000", "135353.497000", "135353.500000", "135353.503000", "135353.507000", "135353.510000", "135353.513000", "135353.517000", "135353.520000", "135353.524000", "135353.527000", "135353.530000", "135353.534000", "135353.537000", "135353.540000", "135353.544000", "135353.547000", "135433.445000", "135433.449000", "135433.453000", "135433.456000", "135433.459000", "135433.463000", "135433.466000", "135433.470000", "135433.473000", "135433.476000", "135433.480000", "135433.483000", "135433.487000", "135433.490000", "135433.493000", "135433.497000", "135433.500000", "135433.504000", "135433.507000", "135433.511000", "135433.514000", "135433.518000", "135433.521000", "135433.525000", "135433.528000", "135433.531000", "135433.535000", "135513.445000", "135513.449000", "135513.453000", "135513.456000", "135513.459000", "135513.463000", "135513.466000", "135513.470000", "135513.473000", "135513.476000", "135513.480000", "135513.483000", "135513.487000", "135513.490000", "135513.493000", "135513.510000", "135513.513000", "135513.517000", "135513.520000", "135513.523000", "135513.527000", "135513.530000", "135513.534000", "135513.537000", "135513.541000", "135513.544000", "135513.547000", "135553.445000", "135553.449000", "135553.452000", "135553.456000", "135553.459000", "135553.463000", "135553.466000", "135553.469000", "135553.473000", "135553.476000", "135553.480000", "135553.483000", "135553.486000", "135553.490000", "135553.493000", "135553.497000", "135553.500000", "135553.503000", "135553.507000", "135553.510000", "135553.514000", "135553.517000", "135553.521000", "135553.524000", "135553.528000", "135553.531000", "135553.534000", "135633.446000", "135633.449000", "135633.453000", "135633.456000", "135633.459000", "135633.463000", "135633.466000", "135633.470000", "135633.473000", "135633.476000", "135633.480000", "135633.483000", "135633.487000", "135633.490000", "135633.493000", "135633.497000", "135633.500000", "135633.503000", "135633.507000", "135633.510000", "135633.514000", "135633.517000", "135633.520000", "135633.524000", "135633.527000", "135633.531000", "135633.534000", "135713.445000", "135713.449000", "135713.453000", "135713.456000", "135713.459000", "135713.463000", "135713.466000", "135713.470000", "135713.473000", "135713.476000", "135713.480000", "135713.483000", "135713.487000", "135713.491000", "135713.496000", "135713.500000", "135713.503000", "135713.507000", "135713.510000", "135713.514000", "135713.517000", "135713.521000", "135713.525000", "135713.528000", "135713.531000", "135713.535000", "135753.445000", "135753.449000", "135753.452000", "135753.456000", "135753.460000", "135753.463000", "135753.466000", "135753.470000", "135753.473000", "135753.477000", "135753.480000", "135753.483000", "135753.487000", "135753.490000", "135753.494000", "135753.497000", "135753.501000", "135753.504000", "135753.507000", "135753.511000", "135753.514000", "135753.518000", "135753.521000", "135753.525000", "135753.528000", "135753.531000", "135753.535000", "135833.445000", "135833.449000", "135833.453000", "135833.456000", "135833.460000", "135833.463000", "135833.466000", "135833.470000", "135833.473000", "135833.476000", "135833.480000", "135833.483000", "135833.487000", "135833.490000", "135833.493000", "135833.497000", "135833.500000", "135833.503000", "135833.507000", "135833.510000", "135833.514000", "135833.517000", "135833.520000", "135833.524000", "135833.527000", "135833.531000", "135833.534000", "135913.445000", "135913.449000", "135913.453000", "135913.456000", "135913.460000", "135913.463000", "135913.467000", "135913.470000", "135913.473000", "135913.477000", "135913.480000", "135913.484000", "135913.487000", "135913.490000", "135913.494000", "135913.497000", "135913.500000", "135913.504000", "135913.507000", "135913.511000", "135913.514000", "135913.518000", "135913.521000", "135913.524000", "135913.528000", "135913.531000", "135913.535000", "135953.445000", "135953.449000", "135953.453000", "135953.456000", "135953.459000", "135953.463000", "135953.466000", "135953.470000", "135953.483000", "135953.487000", "135953.490000", "135953.495000", "135953.498000", "135953.502000", "135953.505000", "135953.508000", "135953.512000", "135953.515000", "135953.519000", "135953.522000", "135953.525000", "135953.529000", "135953.532000", "135953.536000", "135953.539000", "135953.542000", "135953.546000", "140033.445000", "140033.450000", "140033.454000", "140033.457000", "140033.462000", "140033.465000", "140033.469000", "140033.472000", "140033.476000", "140033.479000", "140033.482000", "140033.486000", "140033.489000", "140033.492000", "140033.496000", "140033.499000", "140033.503000", "140033.506000", "140033.510000", "140033.513000", "140033.516000", "140033.520000", "140033.523000", "140033.527000", "140033.530000", "140033.533000", "140033.537000", "140113.445000", "140113.449000", "140113.453000", "140113.456000", "140113.460000", "140113.463000", "140113.467000", "140113.470000", "140113.474000", "140113.477000", "140113.480000", "140113.484000", "140113.487000", "140113.491000", "140113.494000", "140113.497000", "140113.501000", "140113.504000", "140113.508000", "140113.511000", "140113.514000", "140113.518000", "140113.521000", "140113.524000", "140113.528000", "140113.531000", "140113.535000", "140118.389000", "140118.393000", "140118.396000"],
      "InstanceCreationTime": ["135153.490000", "135153.493000", "135153.497000", "135153.500000", "135153.504000", "135153.507000", "135153.510000", "135153.514000", "135153.517000", "135153.526000", "135153.530000", "135153.533000", "135153.536000", "135153.540000", "135153.543000", "135153.547000", "135153.550000", "135233.445000", "135233.449000", "135233.453000", "135233.456000", "135233.459000", "135233.469000", "135233.472000", "135233.476000", "135233.479000", "135233.482000", "135233.486000", "135233.489000", "135233.492000", "135233.496000", "135233.499000", "135233.502000", "135233.506000", "135233.509000", "135233.513000", "135233.516000", "135233.519000", "135233.523000", "135233.526000", "135233.530000", "135233.533000", "135233.536000", "135233.540000", "135233.543000", "135233.546000", "135233.550000", "135233.553000", "135233.557000", "135233.560000", "135233.563000", "135233.567000", "135233.570000", "135233.574000", "135233.577000", "135233.580000", "135253.445000", "135253.449000", "135253.452000", "135253.456000", "135253.459000", "135253.462000", "135253.466000", "135253.469000", "135253.473000", "135253.476000", "135253.479000", "135253.483000", "135253.486000", "135253.489000", "135253.493000", "135253.496000", "135253.509000", "135253.512000", "135253.516000", "135253.519000", "135253.523000", "135313.445000", "135313.449000", "135313.452000", "135313.456000", "135313.459000", "135313.463000", "135313.466000", "135313.469000", "135313.473000", "135313.476000", "135313.480000", "135313.484000", "135313.487000", "135313.491000", "135313.494000", "135313.498000", "135313.501000", "135313.504000", "135313.508000", "135313.511000", "135353.445000", "135353.449000", "135353.452000", "135353.456000", "135353.459000", "135353.463000", "135353.466000", "135353.469000", "135353.473000", "135353.476000", "135353.480000", "135353.483000", "135353.486000", "135353.490000", "135353.493000", "135353.497000", "135353.500000", "135353.503000", "135353.507000", "135353.510000", "135353.513000", "135353.517000", "135353.520000", "135353.524000", "135353.527000", "135353.530000", "135353.534000", "135353.537000", "135353.540000", "135353.544000", "135353.547000", "135433.445000", "135433.449000", "135433.453000", "135433.456000", "135433.459000", "135433.463000", "135433.466000", "135433.470000", "135433.473000", "135433.476000", "135433.480000", "135433.483000", "135433.487000", "135433.490000", "135433.493000", "135433.497000", "135433.500000", "135433.504000", "135433.507000", "135433.511000", "135433.514000", "135433.518000", "135433.521000", "135433.525000", "135433.528000", "135433.531000", "135433.535000", "135513.445000", "135513.449000", "135513.453000", "135513.456000", "135513.459000", "135513.463000", "135513.466000", "135513.470000", "135513.473000", "135513.476000", "135513.480000", "135513.483000", "135513.487000", "135513.490000", "135513.493000", "135513.510000", "135513.513000", "135513.517000", "135513.520000", "135513.523000", "135513.527000", "135513.530000", "135513.534000", "135513.537000", "135513.541000", "135513.544000", "135513.547000", "135553.445000", "135553.449000", "135553.452000", "135553.456000", "135553.459000", "135553.463000", "135553.466000", "135553.469000", "135553.473000", "135553.476000", "135553.480000", "135553.483000", "135553.486000", "135553.490000", "135553.493000", "135553.497000", "135553.500000", "135553.503000", "135553.507000", "135553.510000", "135553.514000", "135553.517000", "135553.521000", "135553.524000", "135553.528000", "135553.531000", "135553.534000", "135633.446000", "135633.449000", "135633.453000", "135633.456000", "135633.459000", "135633.463000", "135633.466000", "135633.470000", "135633.473000", "135633.476000", "135633.480000", "135633.483000", "135633.487000", "135633.490000", "135633.493000", "135633.497000", "135633.500000", "135633.503000", "135633.507000", "135633.510000", "135633.514000", "135633.517000", "135633.520000", "135633.524000", "135633.527000", "135633.531000", "135633.534000", "135713.445000", "135713.449000", "135713.453000", "135713.456000", "135713.459000", "135713.463000", "135713.466000", "135713.470000", "135713.473000", "135713.476000", "135713.480000", "135713.483000", "135713.487000", "135713.491000", "135713.496000", "135713.500000", "135713.503000", "135713.507000", "135713.510000", "135713.514000", "135713.517000", "135713.521000", "135713.525000", "135713.528000", "135713.531000", "135713.535000", "135753.445000", "135753.449000", "135753.452000", "135753.456000", "135753.460000", "135753.463000", "135753.466000", "135753.470000", "135753.473000", "135753.477000", "135753.480000", "135753.483000", "135753.487000", "135753.490000", "135753.494000", "135753.497000", "135753.501000", "135753.504000", "135753.507000", "135753.511000", "135753.514000", "135753.518000", "135753.521000", "135753.525000", "135753.528000", "135753.531000", "135753.535000", "135833.445000", "135833.449000", "135833.453000", "135833.456000", "135833.460000", "135833.463000", "135833.466000", "135833.470000", "135833.473000", "135833.476000", "135833.480000", "135833.483000", "135833.487000", "135833.490000", "135833.493000", "135833.497000", "135833.500000", "135833.503000", "135833.507000", "135833.510000", "135833.514000", "135833.517000", "135833.520000", "135833.524000", "135833.527000", "135833.531000", "135833.534000", "135913.445000", "135913.449000", "135913.453000", "135913.456000", "135913.460000", "135913.463000", "135913.467000", "135913.470000", "135913.473000", "135913.477000", "135913.480000", "135913.484000", "135913.487000", "135913.490000", "135913.494000", "135913.497000", "135913.500000", "135913.504000", "135913.507000", "135913.511000", "135913.514000", "135913.518000", "135913.521000", "135913.524000", "135913.528000", "135913.531000", "135913.535000", "135953.445000", "135953.449000", "135953.453000", "135953.456000", "135953.459000", "135953.463000", "135953.466000", "135953.470000", "135953.483000", "135953.487000", "135953.490000", "135953.495000", "135953.498000", "135953.502000", "135953.505000", "135953.508000", "135953.512000", "135953.515000", "135953.519000", "135953.522000", "135953.525000", "135953.529000", "135953.532000", "135953.536000", "135953.539000", "135953.542000", "135953.546000", "140033.445000", "140033.450000", "140033.454000", "140033.457000", "140033.462000", "140033.465000", "140033.469000", "140033.472000", "140033.476000", "140033.479000", "140033.482000", "140033.486000", "140033.489000", "140033.492000", "140033.496000", "140033.499000", "140033.503000", "140033.506000", "140033.510000", "140033.513000", "140033.516000", "140033.520000", "140033.523000", "140033.527000", "140033.530000", "140033.533000", "140033.537000", "140113.445000", "140113.449000", "140113.453000", "140113.456000", "140113.460000", "140113.463000", "140113.467000", "140113.470000", "140113.474000", "140113.477000", "140113.480000", "140113.484000", "140113.487000", "140113.491000", "140113.494000", "140113.497000", "140113.501000", "140113.504000", "140113.508000", "140113.511000", "140113.514000", "140113.518000", "140113.521000", "140113.524000", "140113.528000", "140113.531000", "140113.535000", "140118.389000", "140118.393000", "140118.396000"],
