{
  "AcquisitionMatrixPE": 104,
  "AcquisitionNumber": 1,
  "AcquisitionTime": "14:41:45.042500",
  "BandwidthPerPixelPhaseEncode": 17.17,
  "BaseResolution": 104,
  "BodyPartExamined": "BRAIN",
  "CoilString": "HC1-7;NC1_2",
  "ConsistencyInfo": "N4_VE11C_LATEST_20160120",
  "ConversionSoftware": "dcm2niix",
  "ConversionSoftwareVersion": "v1.0.20190902",
  "DerivedVendorReportedEchoSpacing": 0.000560011,
  "DeviceSerialNumber": "167006",
  "DwellTime": 2.1e-06,
  "EchoTime": 0.037,
  "EchoTrainLength": 104,
  "EffectiveEchoSpacing": 0.000560011,
  "FlipAngle": 52,
  "HeudiconvVersion": "0.10.0",
  "ImageComments": "Unaliased_MB4_PE3_LB",
  "ImageOrientationPatientDICOM": [0.99954, 0.0270299, -0.0137309, -0.0301895, 0.845801, -0.532644],
  "ImageType": [
    "ORIGINAL",
    "PRIMARY",
    "M",
    "MB",
    "ND",
    "MOSAIC"
],
  "ImagingFrequency": 123.259,
  "InPlanePhaseEncodingDirectionDICOM": "COL",
  "InstitutionAddress": "Chemin_Queen-Mary_4565_Montreal_District_CA_H3W_1W5",
  "InstitutionName": "IUGM",
  "InstitutionalDepartmentName": "Department",
  "MRAcquisitionType": "2D",
  "MagneticFieldStrength": 3,
  "Manufacturer": "Siemens",
  "ManufacturersModelName": "Prisma_fit",
  "Modality": "MR",
  "MultibandAccelerationFactor": 4,
  "PartialFourier": 1,
  "PatientPosition": "HFS",
  "PercentPhaseFOV": 100,
  "PhaseEncodingDirection": "j",
  "PhaseEncodingSteps": 104,
  "PhaseResolution": 1,
  "PixelBandwidth": 2290,
  "ProcedureStepDescription": "games_mario",
  "ProtocolName": "func_task-mario_run-04",
  "PulseSequenceDetails": "%CustomerSeq%_cmrr_mbep2d_bold",
  "ReceiveCoilActiveElements": "HC1-7;NC1,2",
  "ReceiveCoilName": "HeadNeck_64",
  "ReconMatrixPE": 104,
  "RepetitionTime": 1.49,
  "SAR": 0.0532505,
  "ScanOptions": "FS",
  "ScanningSequence": "EP",
  "SequenceName": "epfid2d1_104",
  "SequenceVariant": "SK_SS",
  "SeriesDescription": "func_task-mario_run-04",
  "SeriesNumber": 19,
  "ShimSetting": [614, -7168, -8870, 210, 23, -159, 0, -14],
  "SliceThickness": 2,
  "SliceTiming": [0, 0.7825, 0.0975, 0.8825, 0.195, 0.98, 0.2925, 1.0775, 0.3925, 1.175, 0.49, 1.2725, 0.5875, 1.3725, 0.685, 0, 0.7825, 0.0975, 0.8825, 0.195, 0.98, 0.2925, 1.0775, 0.3925, 1.175, 0.49, 1.2725, 0.5875, 1.3725, 0.685, 0, 0.7825, 0.0975, 0.8825, 0.195, 0.98, 0.2925, 1.0775, 0.3925, 1.175, 0.49, 1.2725, 0.5875, 1.3725, 0.685, 0, 0.7825, 0.0975, 0.8825, 0.195, 0.98, 0.2925, 1.0775, 0.3925, 1.175, 0.49, 1.2725, 0.5875, 1.3725, 0.685],
  "SoftwareVersions": "syngo_MR_E11",
  "SpacingBetweenSlices": 2,
  "StationName": "MRC35049",
  "TaskName": "mario",
  "TotalReadoutTime": 0.0576811,
  "TxRefAmp": 287.122,
  "WipMemBlock": "f76841fb-40b1-46d4-bc14-d202c0fc9058||Sequence: R016 ve11c/master r/e634e98; Dec 19 2017 11:00:25 by eja",
  "dcmmeta_affine": [
    [-1.9990806579589844, -0.06037895008921623, 0.005567350424826145, 109.89615631103516],
    [-0.05405976623296738, 1.691601276397705, -1.0656278133392334, -46.15350341796875],
    [-0.02746187523007393, 1.0652884244918823, 1.692455768585205, -95.30474853515625],
    [0.0, 0.0, 0.0, 1.0]
],
  "dcmmeta_reorient_transform": [
    [0.0, -1.0, 0.0, 103.0],
    [1.0, 0.0, 0.0, 0.0],
    [0.0, 0.0, 1.0, 0.0],
    [0.0, 0.0, 0.0, 1.0]
],
  "dcmmeta_shape": [104, 104, 60, 463],
  "dcmmeta_slice_dim": 2,
  "dcmmeta_version": 0.6,
  "global": {
    "const": {
      "AcquisitionMatrix": [104, 0, 0, 104],
      "AngioFlag": "N",
      "BitsAllocated": 16,
      "BitsStored": 16,
      "BodyPartExamined": "BRAIN",
      "Columns": 832,
      "EchoNumbers": 1,
      "EchoTime": 37.0,
      "EchoTrainLength": 104,
      "FlipAngle": 52.0,
      "HighBit": 15,
      "ImageOrientationPatient": [0.99954031770994, 0.02702988400487, -0.0137309374403, -0.0301894753874, 0.84580065258491, -0.5326442073869],
      "ImagePositionPatient": [-809.36454104827, -763.5020628697, 412.18106339783],
      "ImageType": [
        "ORIGINAL",
        "PRIMARY",
        "M",
        "MB",
        "ND",
        "MOSAIC"
],
      "ImagedNucleus": "1H",
      "ImagingFrequency": 123.258941,
      "InPlanePhaseEncodingDirection": "COL",
      "MRAcquisitionType": "2D",
      "MagneticFieldStrength": 3.0,
      "Manufacturer": "SIEMENS",
      "ManufacturerModelName": "Prisma_fit",
      "Modality": "MR",
      "NumberOfAverages": 1.0,
      "NumberOfPhaseEncodingSteps": 104,
      "PercentPhaseFieldOfView": 100.0,
      "PercentSampling": 100.0,
      "PerformedProcedureStepStartTime": "133223.210000",
      "PhotometricInterpretation": "MONOCHROME2",
      "PixelBandwidth": 2290.0,
      "PixelRepresentation": 0,
      "PixelSpacing": [2.0, 2.0],
      "ProtocolName": "func_task-mario_run-04",
      "RepetitionTime": 1490.0,
      "Rows": 832,
      "SAR": 0.05325052972468,
      "SamplesPerPixel": 1,
      "ScanOptions": "FS",
      "ScanningSequence": "EP",
      "SequenceName": "epfid2d1_104",
      "SequenceVariant": [
        "SK",
        "SS"
],
      "SeriesDescription": "func_task-mario_run-04",
      "SeriesNumber": 19,
      "SeriesTime": "144253.486000",
      "SliceLocation": -55.752392367084,
      "SliceThickness": 2.0,
      "SmallestImagePixelValue": 0,
      "SoftwareVersions": "syngo MR E11",
      "SpacingBetweenSlices": 1.9999999917421,
      "SpecificCharacterSet": "ISO_IR 100",
      "StudyID": "1",
      "StudyTime": "133223.092000",
      "TransmitCoilName": "Body",
      "VariableFlipAngleFlag": "N",
      "WindowCenterWidthExplanation": "Algo1",
      "dBdt": 0.0},
    "slices": {}
  },
  "time": {
    "samples": {
      "AcquisitionNumber": [1, 2, 3, 4, 5, 6, 7, 8, 9, 10, 11, 12, 13, 14, 15, 16, 17, 18, 19, 20, 21, 22, 23, 24, 25, 26, 27, 28, 29, 30, 31, 32, 33, 34, 35, 36, 37, 38, 39, 40, 41, 42, 43, 44, 45, 46, 47, 48, 49, 50, 51, 52, 53, 54, 55, 56, 57, 58, 59, 60, 61, 62, 63, 64, 65, 66, 67, 68, 69, 70, 71, 72, 73, 74, 75, 76, 77, 78, 79, 80, 81, 82, 83, 84, 85, 86, 87, 88, 89, 90, 91, 92, 93, 94, 95, 96, 97, 98, 99, 100, 101, 102, 103, 104, 105, 106, 107, 108, 109, 110, 111, 112, 113, 114, 115, 116, 117, 118, 119, 120, 121, 122, 123, 124, 125, 126, 127, 128, 129, 130, 131, 132, 133, 134, 135, 136, 137, 138, 139, 140, 141, 142, 143, 144, 145, 146, 147, 148, 149, 150, 151, 152, 153, 154, 155, 156, 157, 158, 159, 160, 161, 162, 163, 164, 165, 166, 167, 168, 169, 170, 171, 172, 173, 174, 175, 176, 177, 178, 179, 180, 181, 182, 183, 184, 185, 186, 187, 188, 189, 190, 191, 192, 193, 194, 195, 196, 197, 198, 199, 200, 201, 202, 203, 204, 205, 206, 207, 208, 209, 210, 211, 212, 213, 214, 215, 216, 217, 218, 219, 220, 221, 222, 223, 224, 225, 226, 227, 228, 229, 230, 231, 232, 233, 234, 235, 236, 237, 238, 239, 240, 241, 242, 243, 244, 245, 246, 247, 248, 249, 250, 251, 252, 253, 254, 255, 256, 257, 258, 259, 260, 261, 262, 263, 264, 265, 266, 267, 268, 269, 270, 271, 272, 273, 274, 275, 276, 277, 278, 279, 280, 281, 282, 283, 284, 285, 286, 287, 288, 289, 290, 291, 292, 293, 294, 295, 296, 297, 298, 299, 300, 301, 302, 303, 304, 305, 306, 307, 308, 309, 310, 311, 312, 313, 314, 315, 316, 317, 318, 319, 320, 321, 322, 323, 324, 325, 326, 327, 328, 329, 330, 331, 332, 333, 334, 335, 336, 337, 338, 339, 340, 341, 342, 343, 344, 345, 346, 347, 348, 349, 350, 351, 352, 353, 354, 355, 356, 357, 358, 359, 360, 361, 362, 363, 364, 365, 366, 367, 368, 369, 370, 371, 372, 373, 374, 375, 376, 377, 378, 379, 380, 381, 382, 383, 384, 385, 386, 387, 388, 389, 390, 391, 392, 393, 394, 395, 396, 397, 398, 399, 400, 401, 402, 403, 404, 405, 406, 407, 408, 409, 410, 411, 412, 413, 414, 415, 416, 417, 418, 419, 420, 421, 422, 423, 424, 425, 426, 427, 428, 429, 430, 431, 432, 433, 434, 435, 436, 437, 438, 439, 440, 441, 442, 443, 444, 445, 446, 447, 448, 449, 450, 451, 452, 453, 454, 455, 456, 457, 458, 459, 460, 461, 462, 463],
      "AcquisitionTime": ["144145.042500", "144146.532500", "144148.022500", "144149.512500", "144151.002500", "144152.492500", "144153.982500", "144155.472500", "144156.962500", "144158.452500", "144159.942500", "144201.432500", "144202.922500", "144204.412500", "144205.902500", "144207.392500", "144208.882500", "144210.372500", "144211.862500", "144213.352500", "144214.842500", "144216.332500", "144217.822500", "144219.312500", "144220.802500", "144222.292500", "144223.782500", "144225.272500", "144226.762500", "144228.252500", "144229.742500", "144231.232500", "144232.722500", "144234.212500", "144235.702500", "144237.192500", "144238.682500", "144240.172500", "144241.662500", "144243.152500", "144244.642500", "144246.132500", "144247.622500", "144249.112500", "144250.602500", "144252.092500", "144253.582500", "144255.072500", "144256.562500", "144258.052500", "144259.542500", "144301.032500", "144302.522500", "144304.012500", "144305.502500", "144306.992500", "144308.482500", "144309.972500", "144311.462500", "144312.952500", "144314.442500", "144315.932500", "144317.422500", "144318.912500", "144320.402500", "144321.892500", "144323.382500", "144324.872500", "144326.362500", "144327.852500", "144329.342500", "144330.832500", "144332.322500", "144333.812500", "144335.302500", "144336.792500", "144338.282500", "144339.772500", "144341.262500", "144342.752500", "144344.242500", "144345.732500", "144347.222500", "144348.712500", "144350.202500", "144351.692500", "144353.182500", "144354.672500", "144356.162500", "144357.652500", "144359.142500", "144400.632500", "144402.122500", "144403.612500", "144405.102500", "144406.592500", "144408.082500", "144409.572500", "144411.062500", "144412.552500", "144414.042500", "144415.532500", "144417.022500", "144418.512500", "144420.002500", "144421.492500", "144422.982500", "144424.472500", "144425.962500", "144427.452500", "144428.942500", "144430.432500", "144431.922500", "144433.412500", "144434.902500", "144436.392500", "144437.882500", "144439.372500", "144440.862500", "144442.352500", "144443.842500", "144445.332500", "144446.822500", "144448.312500", "144449.802500", "144451.292500", "144452.782500", "144454.272500", "144455.762500", "144457.252500", "144458.742500", "144500.232500", "144501.722500", "144503.212500", "144504.702500", "144506.192500", "144507.682500", "144509.172500", "144510.662500", "144512.152500", "144513.642500", "144515.132500", "144516.622500", "144518.112500", "144519.602500", "144521.092500", "144522.582500", "144524.072500", "144525.562500", "144527.052500", "144528.542500", "144530.032500", "144531.522500", "144533.012500", "144534.502500", "144535.992500", "144537.482500", "144538.972500", "144540.462500", "144541.952500", "144543.442500", "144544.932500", "144546.422500", "144547.912500", "144549.402500", "144550.892500", "144552.382500", "144553.872500", "144555.362500", "144556.852500", "144558.342500", "144559.832500", "144601.322500", "144602.812500", "144604.302500", "144605.792500", "144607.282500", "144608.772500", "144610.262500", "144611.752500", "144613.242500", "144614.732500", "144616.222500", "144617.712500", "144619.202500", "144620.692500", "144622.182500", "144623.672500", "144625.162500", "144626.652500", "144628.142500", "144629.632500", "144631.122500", "144632.612500", "144634.102500", "144635.592500", "144637.082500", "144638.572500", "144640.062500", "144641.552500", "144643.042500", "144644.532500", "144646.022500", "144647.512500", "144649.002500", "144650.492500", "144651.982500", "144653.472500", "144654.962500", "144656.452500", "144657.942500", "144659.432500", "144700.922500", "144702.412500", "144703.902500", "144705.392500", "144706.882500", "144708.372500", "144709.862500", "144711.352500", "144712.842500", "144714.332500", "144715.822500", "144717.312500", "144718.802500", "144720.292500", "144721.782500", "144723.272500", "144724.762500", "144726.252500", "144727.742500", "144729.232500", "144730.722500", "144732.212500", "144733.702500", "144735.192500", "144736.682500", "144738.172500", "144739.662500", "144741.152500", "144742.642500", "144744.132500", "144745.622500", "144747.112500", "144748.602500", "144750.092500", "144751.582500", "144753.072500", "144754.562500", "144756.052500", "144757.542500", "144759.032500", "144800.522500", "144802.012500", "144803.502500", "144804.992500", "144806.482500", "144807.972500", "144809.462500", "144810.952500", "144812.442500", "144813.932500", "144815.422500", "144816.912500", "144818.402500", "144819.892500", "144821.382500", "144822.872500", "144824.362500", "144825.852500", "144827.342500", "144828.832500", "144830.322500", "144831.812500", "144833.302500", "144834.792500", "144836.282500", "144837.772500", "144839.262500", "144840.752500", "144842.242500", "144843.732500", "144845.222500", "144846.712500", "144848.202500", "144849.692500", "144851.182500", "144852.672500", "144854.162500", "144855.652500", "144857.142500", "144858.632500", "144900.122500", "144901.612500", "144903.102500", "144904.592500", "144906.082500", "144907.572500", "144909.062500", "144910.552500", "144912.042500", "144913.532500", "144915.022500", "144916.512500", "144918.002500", "144919.492500", "144920.982500", "144922.472500", "144923.962500", "144925.452500", "144926.942500", "144928.432500", "144929.922500", "144931.412500", "144932.902500", "144934.392500", "144935.882500", "144937.372500", "144938.862500", "144940.352500", "144941.842500", "144943.332500", "144944.822500", "144946.312500", "144947.802500", "144949.292500", "144950.782500", "144952.272500", "144953.762500", "144955.252500", "144956.742500", "144958.232500", "144959.722500", "145001.212500", "145002.702500", "145004.192500", "145005.682500", "145007.172500", "145008.662500", "145010.152500", "145011.642500", "145013.132500", "145014.622500", "145016.112500", "145017.602500", "145019.092500", "145020.582500", "145022.072500", "145023.562500", "145025.052500", "145026.542500", "145028.032500", "145029.522500", "145031.012500", "145032.502500", "145033.992500", "145035.482500", "145036.972500", "145038.462500", "145039.952500", "145041.442500", "145042.932500", "145044.422500", "145045.912500", "145047.402500", "145048.892500", "145050.382500", "145051.872500", "145053.362500", "145054.852500", "145056.342500", "145057.832500", "145059.322500", "145100.812500", "145102.302500", "145103.792500", "145105.282500", "145106.772500", "145108.262500", "145109.752500", "145111.242500", "145112.732500", "145114.222500", "145115.712500", "145117.202500", "145118.692500", "145120.182500", "145121.672500", "145123.162500", "145124.652500", "145126.142500", "145127.632500", "145129.122500", "145130.612500", "145132.102500", "145133.592500", "145135.082500", "145136.572500", "145138.062500", "145139.552500", "145141.042500", "145142.532500", "145144.022500", "145145.512500", "145147.002500", "145148.492500", "145149.982500", "145151.472500", "145152.962500", "145154.452500", "145155.942500", "145157.432500", "145158.922500", "145200.412500", "145201.902500", "145203.392500", "145204.882500", "145206.372500", "145207.862500", "145209.352500", "145210.842500", "145212.332500", "145213.822500", "145215.312500", "145216.802500", "145218.292500", "145219.782500", "145221.272500", "145222.762500", "145224.252500", "145225.742500", "145227.232500", "145228.722500", "145230.212500", "145231.702500", "145233.192500", "145234.682500", "145236.172500", "145237.662500", "145239.152500", "145240.642500", "145242.132500", "145243.622500", "145245.112500", "145246.602500", "145248.092500", "145249.582500", "145251.072500", "145252.562500", "145254.052500", "145255.542500", "145257.032500", "145258.522500", "145300.012500", "145301.502500", "145302.992500", "145304.482500", "145305.972500", "145307.462500", "145308.952500", "145310.442500", "145311.932500", "145313.422500"],
      "ContentTime": ["144253.489000", "144253.493000", "144253.497000", "144253.500000", "144253.512000", "144253.515000", "144253.519000", "144253.522000", "144253.525000", "144253.529000", "144253.532000", "144253.535000", "144253.539000", "144313.445000", "144313.449000", "144313.452000", "144313.456000", "144313.460000", "144313.465000", "144313.469000", "144313.474000", "144313.486000", "144313.490000", "144313.494000", "144313.498000", "144313.501000", "144313.504000", "144313.508000", "144313.511000", "144313.515000", "144313.518000", "144313.529000", "144313.532000", "144333.445000", "144333.449000", "144333.452000", "144333.456000", "144333.459000", "144333.462000", "144333.466000", "144333.469000", "144333.473000", "144333.476000", "144333.480000", "144333.483000", "144333.486000", "144333.490000", "144333.493000", "144333.497000", "144333.500000", "144333.503000", "144333.507000", "144333.510000", "144333.514000", "144353.445000", "144353.449000", "144353.452000", "144353.468000", "144353.472000", "144353.475000", "144353.478000", "144353.482000", "144353.485000", "144353.488000", "144353.492000", "144353.495000", "144353.499000", "144353.502000", "144353.505000", "144353.509000", "144353.513000", "144353.516000", "144353.520000", "144353.523000", "144413.445000", "144413.449000", "144413.452000", "144413.456000", "144413.459000", "144413.463000", "144413.466000", "144413.470000", "144413.473000", "144413.477000", "144413.480000", "144413.483000", "144413.487000", "144413.490000", "144413.494000", "144413.497000", "144413.500000", "144413.504000", "144413.507000", "144413.511000", "144453.446000", "144453.450000", "144453.454000", "144453.458000", "144453.462000", "144453.465000", "144453.469000", "144453.472000", "144453.476000", "144453.480000", "144453.483000", "144453.486000", "144453.490000", "144453.493000", "144453.497000", "144453.500000", "144453.504000", "144453.507000", "144453.511000", "144453.514000", "144453.517000", "144453.521000", "144453.524000", "144453.528000", "144453.531000", "144453.535000", "144453.538000", "144453.542000", "144453.545000", "144453.549000", "144453.552000", "144453.555000", "144533.445000", "144533.449000", "144533.453000", "144533.456000", "144533.460000", "144533.463000", "144533.466000", "144533.470000", "144533.473000", "144533.477000", "144533.480000", "144533.483000", "144533.487000", "144533.490000", "144533.494000", "144533.497000", "144533.501000", "144533.504000", "144533.507000", "144533.511000", "144533.514000", "144533.518000", "144533.521000", "144533.524000", "144533.528000", "144533.531000", "144613.445000", "144613.449000", "144613.452000", "144613.456000", "144613.459000", "144613.463000", "144613.466000", "144613.469000", "144613.473000", "144613.476000", "144613.480000", "144613.483000", "144613.486000", "144613.490000", "144613.493000", "144613.497000", "144613.500000", "144613.503000", "144613.507000", "144613.510000", "144613.514000", "144613.517000", "144613.520000", "144613.524000", "144613.527000", "144613.531000", "144613.534000", "144653.445000", "144653.449000", "144653.453000", "144653.456000", "144653.459000", "144653.463000", "144653.466000", "144653.470000", "144653.473000", "144653.476000", "144653.480000", "144653.483000", "144653.487000", "144653.490000", "144653.493000", "144653.497000", "144653.500000", "144653.504000", "144653.515000", "144653.518000", "144653.522000", "144653.525000", "144653.528000", "144653.532000", "144653.535000", "144653.539000", "144653.542000", "144733.445000", "144733.449000", "144733.453000", "144733.456000", "144733.460000", "144733.463000", "144733.466000", "144733.470000", "144733.473000", "144733.477000", "144733.480000", "144733.483000", "144733.487000", "144733.490000", "144733.494000", "144733.497000", "144733.501000", "144733.504000", "144733.507000", "144733.511000", "144733.514000", "144733.517000", "144733.521000", "144733.524000", "144733.528000", "144733.531000", "144733.535000", "144813.445000", "144813.449000", "144813.453000", "144813.456000", "144813.460000", "144813.463000", "144813.466000", "144813.470000", "144813.473000", "144813.477000", "144813.480000", "144813.484000", "144813.487000", "144813.490000", "144813.494000", "144813.512000", "144813.516000", "144813.519000", "144813.523000", "144813.526000", "144813.530000", "144813.533000", "144813.537000", "144813.540000", "144813.543000", "144813.547000", "144813.550000", "144853.445000", "144853.449000", "144853.453000", "144853.456000", "144853.460000", "144853.463000", "144853.466000", "144853.470000", "144853.473000", "144853.476000", "144853.480000", "144853.483000", "144853.487000", "144853.490000", "144853.493000", "144853.497000", "144853.500000", "144853.504000", "144853.507000", "144853.510000", "144853.514000", "144853.517000", "144853.521000", "144853.524000", "144853.528000", "144853.531000", "144853.534000", "144933.445000", "144933.449000", "144933.453000", "144933.456000", "144933.459000", "144933.463000", "144933.466000", "144933.470000", "144933.473000", "144933.477000", "144933.480000", "144933.484000", "144933.487000", "144933.491000", "144933.494000", "144933.498000", "144933.501000", "144933.504000", "144933.508000", "144933.511000", "144933.515000", "144933.518000", "144933.521000", "144933.525000", "144933.528000", "144933.531000", "145013.445000", "145013.449000", "145013.453000", "145013.456000", "145013.459000", "145013.463000", "145013.466000", "145013.470000", "145013.473000", "145013.477000", "145013.480000", "145013.483000", "145013.487000", "145013.490000", "145013.494000", "145013.497000", "145013.500000", "145013.504000", "145013.507000", "145013.511000", "145013.514000", "145013.518000", "145013.521000", "145013.524000", "145013.528000", "145013.531000", "145013.535000", "145053.446000", "145053.449000", "145053.453000", "145053.456000", "145053.460000", "145053.463000", "145053.466000", "145053.470000", "145053.473000", "145053.477000", "145053.480000", "145053.484000", "145053.487000", "145053.490000", "145053.494000", "145053.497000", "145053.501000", "145053.504000", "145053.507000", "145053.511000", "145053.514000", "145053.518000", "145053.521000", "145053.526000", "145053.529000", "145053.533000", "145053.536000", "145133.446000", "145133.449000", "145133.453000", "145133.456000", "145133.460000", "145133.463000", "145133.466000", "145133.470000", "145133.473000", "145133.477000", "145133.480000", "145133.483000", "145133.487000", "145133.490000", "145133.494000", "145133.497000", "145133.500000", "145133.504000", "145133.507000", "145133.511000", "145133.514000", "145133.518000", "145133.521000", "145133.524000", "145133.528000", "145133.531000", "145133.535000", "145213.445000", "145213.449000", "145213.453000", "145213.456000", "145213.459000", "145213.463000", "145213.466000", "145213.470000", "145213.473000", "145213.476000", "145213.480000", "145213.483000", "145213.487000", "145213.490000", "145213.493000", "145213.497000", "145213.500000", "145213.504000", "145213.507000", "145213.511000", "145213.514000", "145213.517000", "145213.521000", "145213.524000", "145213.528000", "145213.531000", "145213.534000", "145253.445000", "145253.449000", "145253.453000", "145253.456000", "145253.460000", "145253.463000", "145253.466000", "145253.470000", "145253.484000", "145253.488000", "145253.491000", "145253.495000", "145253.498000", "145253.501000", "145253.505000", "145253.508000", "145253.511000", "145253.515000", "145253.518000", "145253.522000", "145253.525000", "145253.528000", "145253.532000", "145253.535000", "145253.539000", "145253.542000", "145253.545000", "145316.097000", "145316.100000", "145316.104000", "145316.107000", "145316.111000", "145316.114000", "145316.117000", "145316.121000", "145316.124000", "145316.128000", "145316.131000", "145316.134000", "145316.138000", "145316.141000", "145316.145000"],
