{
  "AcquisitionMatrixPE": 104,
  "AcquisitionNumber": 1,
  "AcquisitionTime": "14:29:10.582500",
  "BandwidthPerPixelPhaseEncode": 17.17,
  "BaseResolution": 104,
  "BodyPartExamined": "BRAIN",
  "CoilString": "HC1-7;NC1_2",
  "ConsistencyInfo": "N4_VE11C_LATEST_20160120",
  "ConversionSoftware": "dcm2niix",
  "ConversionSoftwareVersion": "v1.0.20190902",
  "DerivedVendorReportedEchoSpacing": 0.000560011,
  "DeviceSerialNumber": "167006",
  "DwellTime": 2.1e-06,
  "EchoTime": 0.037,
  "EchoTrainLength": 104,
  "EffectiveEchoSpacing": 0.000560011,
  "FlipAngle": 52,
  "HeudiconvVersion": "0.10.0",
  "ImageComments": "Unaliased_MB4_PE3_LB",
  "ImageOrientationPatientDICOM": [0.99954, 0.0270299, -0.0137309, -0.0301895, 0.845801, -0.532644],
  "ImageType": [
    "ORIGINAL",
    "PRIMARY",
    "M",
    "MB",
    "ND",
    "MOSAIC"
],
  "ImagingFrequency": 123.259,
  "InPlanePhaseEncodingDirectionDICOM": "COL",
  "InstitutionAddress": "Chemin_Queen-Mary_4565_Montreal_District_CA_H3W_1W5",
  "InstitutionName": "IUGM",
  "InstitutionalDepartmentName": "Department",
  "MRAcquisitionType": "2D",
  "MagneticFieldStrength": 3,
  "Manufacturer": "Siemens",
  "ManufacturersModelName": "Prisma_fit",
  "Modality": "MR",
  "MultibandAccelerationFactor": 4,
  "PartialFourier": 1,
  "PatientPosition": "HFS",
  "PercentPhaseFOV": 100,
  "PhaseEncodingDirection": "j",
  "PhaseEncodingSteps": 104,
  "PhaseResolution": 1,
  "PixelBandwidth": 2290,
  "ProcedureStepDescription": "games_mario",
  "ProtocolName": "func_task-mario_run-03",
  "PulseSequenceDetails": "%CustomerSeq%_cmrr_mbep2d_bold",
  "ReceiveCoilActiveElements": "HC1-7;NC1,2",
  "ReceiveCoilName": "HeadNeck_64",
  "ReconMatrixPE": 104,
  "RepetitionTime": 1.49,
  "SAR": 0.0532505,
  "ScanOptions": "FS",
  "ScanningSequence": "EP",
  "SequenceName": "epfid2d1_104",
  "SequenceVariant": "SK_SS",
  "SeriesDescription": "func_task-mario_run-03",
  "SeriesNumber": 16,
  "ShimSetting": [614, -7168, -8870, 210, 23, -159, 0, -14],
  "SliceThickness": 2,
  "SliceTiming": [0, 0.785, 0.0975, 0.8825, 0.195, 0.98, 0.295, 1.0775, 0.3925, 1.175, 0.49, 1.275, 0.5875, 1.3725, 0.685, 0, 0.785, 0.0975, 0.8825, 0.195, 0.98, 0.295, 1.0775, 0.3925, 1.175, 0.49, 1.275, 0.5875, 1.3725, 0.685, 0, 0.785, 0.0975, 0.8825, 0.195, 0.98, 0.295, 1.0775, 0.3925, 1.175, 0.49, 1.275, 0.5875, 1.3725, 0.685, 0, 0.785, 0.0975, 0.8825, 0.195, 0.98, 0.295, 1.0775, 0.3925, 1.175, 0.49, 1.275, 0.5875, 1.3725, 0.685],
  "SoftwareVersions": "syngo_MR_E11",
  "SpacingBetweenSlices": 2,
  "StationName": "MRC35049",
  "TaskName": "mario",
  "TotalReadoutTime": 0.0576811,
  "TxRefAmp": 287.122,
  "WipMemBlock": "f956686e-2eab-4e5e-906c-7b01148e2d2e||Sequence: R016 ve11c/master r/e634e98; Dec 19 2017 11:00:25 by eja",
  "dcmmeta_affine": [
    [-1.9990806579589844, -0.06037895008921623, 0.005567350424826145, 109.89615631103516],
    [-0.05405976623296738, 1.691601276397705, -1.0656278133392334, -46.15350341796875],
    [-0.02746187523007393, 1.0652884244918823, 1.692455768585205, -95.30474853515625],
    [0.0, 0.0, 0.0, 1.0]
],
  "dcmmeta_reorient_transform": [
    [0.0, -1.0, 0.0, 103.0],
    [1.0, 0.0, 0.0, 0.0],
    [0.0, 0.0, 1.0, 0.0],
    [0.0, 0.0, 0.0, 1.0]
],
  "dcmmeta_shape": [104, 104, 60, 452],
  "dcmmeta_slice_dim": 2,
  "dcmmeta_version": 0.6,
  "global": {
    "const": {
      "AcquisitionMatrix": [104, 0, 0, 104],
      "AngioFlag": "N",
      "BitsAllocated": 16,
      "BitsStored": 16,
      "BodyPartExamined": "BRAIN",
      "Columns": 832,
      "EchoNumbers": 1,
      "EchoTime": 37.0,
      "EchoTrainLength": 104,
      "FlipAngle": 52.0,
      "HighBit": 15,
      "ImageOrientationPatient": [0.99954031770994, 0.02702988400487, -0.0137309374403, -0.0301894753874, 0.84580065258491, -0.5326442073869],
      "ImagePositionPatient": [-809.36454104827, -763.5020628697, 412.18106339783],
      "ImageType": [
        "ORIGINAL",
        "PRIMARY",
        "M",
        "MB",
        "ND",
        "MOSAIC"
],
      "ImagedNucleus": "1H",
      "ImagingFrequency": 123.258934,
      "InPlanePhaseEncodingDirection": "COL",
      "MRAcquisitionType": "2D",
      "MagneticFieldStrength": 3.0,
      "Manufacturer": "SIEMENS",
      "ManufacturerModelName": "Prisma_fit",
      "Modality": "MR",
      "NumberOfAverages": 1.0,
      "NumberOfPhaseEncodingSteps": 104,
      "PercentPhaseFieldOfView": 100.0,
      "PercentSampling": 100.0,
      "PerformedProcedureStepStartTime": "133223.210000",
      "PhotometricInterpretation": "MONOCHROME2",
      "PixelBandwidth": 2290.0,
      "PixelRepresentation": 0,
      "PixelSpacing": [2.0, 2.0],
      "ProtocolName": "func_task-mario_run-03",
      "RepetitionTime": 1490.0,
      "Rows": 832,
      "SAR": 0.05325052972468,
      "SamplesPerPixel": 1,
      "ScanOptions": "FS",
      "ScanningSequence": "EP",
      "SequenceName": "epfid2d1_104",
      "SequenceVariant": [
        "SK",
        "SS"
],
      "SeriesDescription": "func_task-mario_run-03",
      "SeriesNumber": 16,
      "SeriesTime": "143025.982000",
      "SliceLocation": -55.752392367084,
      "SliceThickness": 2.0,
      "SmallestImagePixelValue": 0,
      "SoftwareVersions": "syngo MR E11",
      "SpacingBetweenSlices": 1.9999999917421,
      "SpecificCharacterSet": "ISO_IR 100",
      "StudyID": "1",
      "StudyTime": "133223.092000",
      "TransmitCoilName": "Body",
      "VariableFlipAngleFlag": "N",
      "WindowCenterWidthExplanation": "Algo1",
      "dBdt": 0.0},
    "slices": {}
  },
  "time": {
    "samples": {
      "AcquisitionNumber": [1, 2, 3, 4, 5, 6, 7, 8, 9, 10, 11, 12, 13, 14, 15, 16, 17, 18, 19, 20, 21, 22, 23, 24, 25, 26, 27, 28, 29, 30, 31, 32, 33, 34, 35, 36, 37, 38, 39, 40, 41, 42, 43, 44, 45, 46, 47, 48, 49, 50, 51, 52, 53, 54, 55, 56, 57, 58, 59, 60, 61, 62, 63, 64, 65, 66, 67, 68, 69, 70, 71, 72, 73, 74, 75, 76, 77, 78, 79, 80, 81, 82, 83, 84, 85, 86, 87, 88, 89, 90, 91, 92, 93, 94, 95, 96, 97, 98, 99, 100, 101, 102, 103, 104, 105, 106, 107, 108, 109, 110, 111, 112, 113, 114, 115, 116, 117, 118, 119, 120, 121, 122, 123, 124, 125, 126, 127, 128, 129, 130, 131, 132, 133, 134, 135, 136, 137, 138, 139, 140, 141, 142, 143, 144, 145, 146, 147, 148, 149, 150, 151, 152, 153, 154, 155, 156, 157, 158, 159, 160, 161, 162, 163, 164, 165, 166, 167, 168, 169, 170, 171, 172, 173, 174, 175, 176, 177, 178, 179, 180, 181, 182, 183, 184, 185, 186, 187, 188, 189, 190, 191, 192, 193, 194, 195, 196, 197, 198, 199, 200, 201, 202, 203, 204, 205, 206, 207, 208, 209, 210, 211, 212, 213, 214, 215, 216, 217, 218, 219, 220, 221, 222, 223, 224, 225, 226, 227, 228, 229, 230, 231, 232, 233, 234, 235, 236, 237, 238, 239, 240, 241, 242, 243, 244, 245, 246, 247, 248, 249, 250, 251, 252, 253, 254, 255, 256, 257, 258, 259, 260, 261, 262, 263, 264, 265, 266, 267, 268, 269, 270, 271, 272, 273, 274, 275, 276, 277, 278, 279, 280, 281, 282, 283, 284, 285, 286, 287, 288, 289, 290, 291, 292, 293, 294, 295, 296, 297, 298, 299, 300, 301, 302, 303, 304, 305, 306, 307, 308, 309, 310, 311, 312, 313, 314, 315, 316, 317, 318, 319, 320, 321, 322, 323, 324, 325, 326, 327, 328, 329, 330, 331, 332, 333, 334, 335, 336, 337, 338, 339, 340, 341, 342, 343, 344, 345, 346, 347, 348, 349, 350, 351, 352, 353, 354, 355, 356, 357, 358, 359, 360, 361, 362, 363, 364, 365, 366, 367, 368, 369, 370, 371, 372, 373, 374, 375, 376, 377, 378, 379, 380, 381, 382, 383, 384, 385, 386, 387, 388, 389, 390, 391, 392, 393, 394, 395, 396, 397, 398, 399, 400, 401, 402, 403, 404, 405, 406, 407, 408, 409, 410, 411, 412, 413, 414, 415, 416, 417, 418, 419, 420, 421, 422, 423, 424, 425, 426, 427, 428, 429, 430, 431, 432, 433, 434, 435, 436, 437, 438, 439, 440, 441, 442, 443, 444, 445, 446, 447, 448, 449, 450, 451, 452],
      "AcquisitionTime": ["142910.582500", "142912.072500", "142913.562500", "142915.052500", "142916.542500", "142918.032500", "142919.522500", "142921.012500", "142922.502500", "142923.992500", "142925.482500", "142926.972500", "142928.462500", "142929.952500", "142931.442500", "142932.932500", "142934.422500", "142935.912500", "142937.402500", "142938.892500", "142940.382500", "142941.872500", "142943.362500", "142944.852500", "142946.342500", "142947.832500", "142949.322500", "142950.812500", "142952.302500", "142953.792500", "142955.282500", "142956.772500", "142958.262500", "142959.752500", "143001.242500", "143002.732500", "143004.222500", "143005.712500", "143007.202500", "143008.692500", "143010.182500", "143011.672500", "143013.162500", "143014.652500", "143016.142500", "143017.632500", "143019.122500", "143020.612500", "143022.102500", "143023.592500", "143025.082500", "143026.572500", "143028.062500", "143029.552500", "143031.042500", "143032.532500", "143034.022500", "143035.512500", "143037.002500", "143038.492500", "143039.982500", "143041.472500", "143042.962500", "143044.452500", "143045.942500", "143047.432500", "143048.922500", "143050.412500", "143051.902500", "143053.392500", "143054.882500", "143056.372500", "143057.862500", "143059.352500", "143100.842500", "143102.332500", "143103.822500", "143105.312500", "143106.802500", "143108.292500", "143109.782500", "143111.272500", "143112.762500", "143114.252500", "143115.742500", "143117.232500", "143118.722500", "143120.212500", "143121.702500", "143123.192500", "143124.682500", "143126.172500", "143127.662500", "143129.152500", "143130.642500", "143132.132500", "143133.622500", "143135.112500", "143136.602500", "143138.092500", "143139.582500", "143141.072500", "143142.562500", "143144.052500", "143145.542500", "143147.032500", "143148.522500", "143150.012500", "143151.502500", "143152.992500", "143154.482500", "143155.972500", "143157.462500", "143158.952500", "143200.442500", "143201.932500", "143203.422500", "143204.912500", "143206.402500", "143207.892500", "143209.382500", "143210.872500", "143212.362500", "143213.852500", "143215.342500", "143216.832500", "143218.322500", "143219.812500", "143221.302500", "143222.792500", "143224.282500", "143225.772500", "143227.262500", "143228.752500", "143230.242500", "143231.732500", "143233.222500", "143234.712500", "143236.202500", "143237.692500", "143239.182500", "143240.672500", "143242.162500", "143243.652500", "143245.142500", "143246.632500", "143248.122500", "143249.612500", "143251.102500", "143252.592500", "143254.082500", "143255.572500", "143257.062500", "143258.552500", "143300.042500", "143301.532500", "143303.022500", "143304.512500", "143306.002500", "143307.492500", "143308.982500", "143310.472500", "143311.962500", "143313.452500", "143314.942500", "143316.432500", "143317.922500", "143319.412500", "143320.902500", "143322.392500", "143323.882500", "143325.372500", "143326.862500", "143328.352500", "143329.842500", "143331.332500", "143332.822500", "143334.312500", "143335.802500", "143337.292500", "143338.782500", "143340.272500", "143341.762500", "143343.252500", "143344.742500", "143346.232500", "143347.722500", "143349.212500", "143350.702500", "143352.192500", "143353.682500", "143355.172500", "143356.662500", "143358.152500", "143359.642500", "143401.132500", "143402.622500", "143404.112500", "143405.602500", "143407.092500", "143408.582500", "143410.072500", "143411.562500", "143413.052500", "143414.542500", "143416.032500", "143417.522500", "143419.012500", "143420.502500", "143421.992500", "143423.482500", "143424.972500", "143426.462500", "143427.952500", "143429.442500", "143430.932500", "143432.422500", "143433.912500", "143435.402500", "143436.892500", "143438.382500", "143439.872500", "143441.362500", "143442.852500", "143444.342500", "143445.832500", "143447.322500", "143448.812500", "143450.302500", "143451.792500", "143453.282500", "143454.772500", "143456.262500", "143457.752500", "143459.242500", "143500.732500", "143502.222500", "143503.712500", "143505.202500", "143506.692500", "143508.182500", "143509.672500", "143511.162500", "143512.652500", "143514.142500", "143515.632500", "143517.122500", "143518.612500", "143520.102500", "143521.592500", "143523.082500", "143524.572500", "143526.062500", "143527.552500", "143529.042500", "143530.532500", "143532.022500", "143533.512500", "143535.002500", "143536.492500", "143537.982500", "143539.472500", "143540.962500", "143542.452500", "143543.942500", "143545.432500", "143546.922500", "143548.412500", "143549.902500", "143551.392500", "143552.882500", "143554.372500", "143555.862500", "143557.352500", "143558.842500", "143600.332500", "143601.822500", "143603.312500", "143604.802500", "143606.292500", "143607.782500", "143609.272500", "143610.762500", "143612.252500", "143613.742500", "143615.232500", "143616.722500", "143618.212500", "143619.702500", "143621.192500", "143622.682500", "143624.172500", "143625.662500", "143627.152500", "143628.642500", "143630.132500", "143631.622500", "143633.112500", "143634.602500", "143636.092500", "143637.582500", "143639.072500", "143640.562500", "143642.052500", "143643.542500", "143645.032500", "143646.522500", "143648.012500", "143649.502500", "143650.992500", "143652.482500", "143653.972500", "143655.462500", "143656.952500", "143658.442500", "143659.932500", "143701.422500", "143702.912500", "143704.402500", "143705.892500", "143707.382500", "143708.872500", "143710.362500", "143711.852500", "143713.342500", "143714.832500", "143716.322500", "143717.812500", "143719.302500", "143720.792500", "143722.282500", "143723.772500", "143725.262500", "143726.752500", "143728.242500", "143729.732500", "143731.222500", "143732.712500", "143734.202500", "143735.692500", "143737.182500", "143738.672500", "143740.162500", "143741.652500", "143743.142500", "143744.632500", "143746.122500", "143747.612500", "143749.102500", "143750.592500", "143752.082500", "143753.572500", "143755.062500", "143756.552500", "143758.042500", "143759.532500", "143801.022500", "143802.512500", "143804.002500", "143805.492500", "143806.982500", "143808.472500", "143809.962500", "143811.452500", "143812.942500", "143814.432500", "143815.922500", "143817.412500", "143818.902500", "143820.392500", "143821.882500", "143823.372500", "143824.862500", "143826.352500", "143827.842500", "143829.332500", "143830.822500", "143832.312500", "143833.802500", "143835.292500", "143836.782500", "143838.272500", "143839.762500", "143841.252500", "143842.742500", "143844.232500", "143845.722500", "143847.212500", "143848.702500", "143850.192500", "143851.682500", "143853.172500", "143854.662500", "143856.152500", "143857.642500", "143859.132500", "143900.622500", "143902.112500", "143903.602500", "143905.092500", "143906.582500", "143908.072500", "143909.562500", "143911.052500", "143912.542500", "143914.032500", "143915.522500", "143917.012500", "143918.502500", "143919.992500", "143921.482500", "143922.972500", "143924.462500", "143925.952500", "143927.442500", "143928.932500", "143930.422500", "143931.912500", "143933.402500", "143934.892500", "143936.382500", "143937.872500", "143939.362500", "143940.852500", "143942.342500", "143943.832500", "143945.322500", "143946.812500", "143948.302500", "143949.792500", "143951.282500", "143952.772500", "143954.262500", "143955.752500", "143957.242500", "143958.732500", "144000.222500", "144001.712500", "144003.202500", "144004.692500", "144006.182500", "144007.672500", "144009.162500", "144010.652500", "144012.142500", "144013.632500", "144015.122500", "144016.612500", "144018.102500", "144019.592500", "144021.082500", "144022.572500"],
      "ContentTime": ["143025.986000", "143026.003000", "143026.006000", "143026.009000", "143026.013000", "143026.016000", "143026.019000", "143026.023000", "143026.026000", "143026.030000", "143026.033000", "143026.036000", "143026.040000", "143026.043000", "143026.047000", "143026.050000", "143026.053000", "143026.057000", "143026.060000", "143026.063000", "143026.067000", "143026.070000", "143045.943000", "143045.947000", "143045.950000", "143045.954000", "143045.957000", "143045.960000", "143045.964000", "143045.967000", "143045.970000", "143045.974000", "143045.977000", "143045.981000", "143045.984000", "143045.988000", "143045.992000", "143045.995000", "143045.999000", "143046.002000", "143046.006000", "143046.010000", "143105.942000", "143105.946000", "143105.949000", "143105.953000", "143105.956000", "143105.959000", "143105.963000", "143105.966000", "143105.969000", "143105.973000", "143105.990000", "143105.994000", "143105.997000", "143106.002000", "143106.005000", "143106.008000", "143106.012000", "143106.015000", "143106.019000", "143106.022000", "143106.026000", "143125.942000", "143125.946000", "143125.950000", "143125.953000", "143125.956000", "143125.960000", "143125.963000", "143125.966000", "143125.970000", "143125.974000", "143125.977000", "143125.980000", "143125.984000", "143125.987000", "143125.991000", "143125.994000", "143125.997000", "143126.002000", "143126.005000", "143126.009000", "143145.942000", "143145.946000", "143145.949000", "143145.953000", "143145.956000", "143145.960000", "143145.963000", "143145.966000", "143145.970000", "143145.973000", "143145.977000", "143145.980000", "143145.983000", "143145.987000", "143145.990000", "143145.994000", "143145.997000", "143146.009000", "143146.013000", "143146.016000", "143225.942000", "143225.946000", "143225.949000", "143225.953000", "143225.956000", "143225.960000", "143225.963000", "143225.966000", "143225.970000", "143225.973000", "143225.977000", "143225.980000", "143225.983000", "143225.987000", "143225.990000", "143225.994000", "143225.997000", "143226.001000", "143226.005000", "143226.008000", "143226.017000", "143226.020000", "143226.024000", "143226.027000", "143226.031000", "143226.034000", "143226.037000", "143305.943000", "143305.947000", "143305.951000", "143305.954000", "143305.957000", "143305.961000", "143305.964000", "143305.968000", "143305.971000", "143305.974000", "143305.978000", "143305.981000", "143305.985000", "143305.988000", "143305.992000", "143305.995000", "143305.999000", "143306.002000", "143306.005000", "143306.009000", "143306.012000", "143306.026000", "143306.030000", "143306.033000", "143306.037000", "143306.040000", "143306.043000", "143345.942000", "143345.946000", "143345.949000", "143345.953000", "143345.956000", "143345.960000", "143345.963000", "143345.967000", "143345.970000", "143345.973000", "143345.977000", "143345.980000", "143345.984000", "143345.987000", "143345.990000", "143345.994000", "143345.997000", "143346.001000", "143346.005000", "143346.008000", "143346.012000", "143346.015000", "143346.018000", "143346.022000", "143346.025000", "143346.028000", "143346.032000", "143425.942000", "143425.946000", "143425.949000", "143425.953000", "143425.956000", "143425.960000", "143425.963000", "143425.967000", "143425.970000", "143425.973000", "143425.977000", "143425.980000", "143425.984000", "143425.995000", "143425.998000", "143426.013000", "143426.016000", "143426.020000", "143426.023000", "143426.026000", "143426.030000", "143426.033000", "143426.036000", "143426.040000", "143426.043000", "143426.046000", "143426.050000", "143505.942000", "143505.946000", "143505.950000", "143505.953000", "143505.956000", "143505.960000", "143505.963000", "143505.967000", "143505.970000", "143505.974000", "143505.978000", "143505.981000", "143505.985000", "143505.988000", "143505.991000", "143505.995000", "143505.998000", "143506.003000", "143506.006000", "143506.010000", "143506.013000", "143506.017000", "143506.020000", "143506.023000", "143506.027000", "143506.030000", "143545.942000", "143545.946000", "143545.949000", "143545.965000", "143545.969000", "143545.972000", "143545.975000", "143545.979000", "143545.982000", "143545.985000", "143545.989000", "143545.992000", "143545.996000", "143546.000000", "143546.004000", "143546.007000", "143546.010000", "143546.014000", "143546.017000", "143546.021000", "143546.024000", "143546.027000", "143546.031000", "143546.034000", "143546.037000", "143546.041000", "143546.044000", "143625.942000", "143625.946000", "143625.950000", "143625.954000", "143625.957000", "143625.960000", "143625.964000", "143625.967000", "143625.971000", "143625.974000", "143625.977000", "143625.981000", "143625.984000", "143625.988000", "143625.991000", "143625.995000", "143625.998000", "143626.003000", "143626.006000", "143626.009000", "143626.013000", "143626.016000", "143626.020000", "143626.023000", "143626.026000", "143626.030000", "143626.033000", "143705.943000", "143705.946000", "143705.950000", "143705.953000", "143705.962000", "143705.965000", "143705.968000", "143705.972000", "143705.976000", "143705.979000", "143705.982000", "143705.986000", "143705.989000", "143705.993000", "143705.996000", "143706.001000", "143706.004000", "143706.008000", "143706.011000", "143706.014000", "143706.018000", "143706.021000", "143706.025000", "143706.028000", "143706.032000", "143706.035000", "143706.038000", "143745.943000", "143745.947000", "143745.951000", "143745.954000", "143745.957000", "143745.961000", "143745.964000", "143745.968000", "143745.971000", "143745.974000", "143745.978000", "143745.981000", "143745.985000", "143745.988000", "143745.991000", "143745.995000", "143745.998000", "143746.003000", "143746.006000", "143746.010000", "143746.013000", "143746.016000", "143746.030000", "143746.033000", "143746.037000", "143746.040000", "143746.043000", "143825.942000", "143825.946000", "143825.949000", "143825.953000", "143826.029000", "143826.033000", "143826.036000", "143826.040000", "143826.043000", "143826.047000", "143826.050000", "143826.054000", "143826.057000", "143826.061000", "143826.064000", "143826.068000", "143826.071000", "143826.074000", "143826.078000", "143826.081000", "143826.085000", "143826.088000", "143826.091000", "143826.096000", "143826.100000", "143826.103000", "143826.107000", "143905.943000", "143905.947000", "143905.951000", "143905.954000", "143905.958000", "143905.962000", "143905.966000", "143905.970000", "143905.973000", "143905.977000", "143905.980000", "143905.984000", "143905.987000", "143905.991000", "143905.994000", "143905.997000", "143906.002000", "143906.005000", "143906.009000", "143906.012000", "143906.016000", "143906.019000", "143906.022000", "143906.026000", "143906.029000", "143906.032000", "143945.942000", "143945.946000", "143945.959000", "143945.962000", "143945.965000", "143945.969000", "143945.972000", "143945.976000", "143945.979000", "143945.983000", "143945.986000", "143945.989000", "143945.993000", "143945.996000", "143946.001000", "143946.004000", "143946.008000", "143946.011000", "143946.014000", "143946.018000", "143946.021000", "143946.025000", "143946.028000", "143946.031000", "143946.035000", "143946.039000", "143946.043000", "144025.942000", "144025.946000", "144025.949000", "144025.953000", "144025.956000", "144025.960000", "144025.963000", "144025.966000", "144025.970000", "144025.973000", "144025.977000", "144025.980000", "144025.984000", "144025.987000", "144025.991000", "144025.994000", "144025.997000", "144026.002000", "144026.005000", "144026.009000", "144026.012000", "144026.016000", "144026.019000", "144026.023000", "144026.026000", "144026.029000", "144026.033000"],
