{
  "AcquisitionMatrixPE": 104,
  "AcquisitionNumber": 1,
  "AcquisitionTime": "11:16:6.317500",
  "BandwidthPerPixelPhaseEncode": 17.17,
  "BaseResolution": 104,
  "BodyPartExamined": "BRAIN",
  "CoilCombinationMethod": "Sum of Squares",
  "ConsistencyInfo": "N4_VE11C_LATEST_20160120",
  "ConversionSoftware": "dcm2niix",
  "ConversionSoftwareVersion": "v1.0.20211006",
  "DerivedVendorReportedEchoSpacing": 0.000560011,
  "DeviceSerialNumber": "167006",
  "DwellTime": 2.1e-06,
  "EchoTime": 0.037,
  "EchoTime1": 0.037,
  "EchoTime2": 0.001,
  "EchoTrainLength": 104,
  "EffectiveEchoSpacing": 0.000560011,
  "FlipAngle": 52,
  "HeudiconvVersion": "0.10.0",
  "ImageComments": "Unaliased MB4/PE3/LB",
  "ImageOrientationPatientDICOM": [0.99925, 0.00832831, 0.0378202, 0.0113366, 0.870913, -0.491306],
  "ImageOrientationText": "Tra>Cor(-29.5)>Sag(2.1)",
  "ImageType": [
    "ORIGINAL",
    "PRIMARY",
    "P",
    "MB",
    "ND",
    "MOSAIC",
    "PHASE"
],
  "ImagingFrequency": 123.259,
  "InPlanePhaseEncodingDirectionDICOM": "COL",
  "InstitutionAddress": "Chemin Queen-Mary 4565,Montreal,District,CA,H3W 1W5",
  "InstitutionName": "IUGM",
  "InstitutionalDepartmentName": "Department",
  "MRAcquisitionType": "2D",
  "MagneticFieldStrength": 3,
  "Manufacturer": "Siemens",
  "ManufacturersModelName": "Prisma_fit",
  "MatrixCoilMode": "SENSE",
  "Modality": "MR",
  "MultibandAccelerationFactor": 4,
  "PartialFourier": 1,
  "PatientPosition": "HFS",
  "PercentPhaseFOV": 100,
  "PercentSampling": 100,
  "PhaseEncodingDirection": "j",
  "PhaseEncodingSteps": 104,
  "PhaseResolution": 1,
  "PixelBandwidth": 2290,
  "ProcedureStepDescription": "games^mario",
  "ProtocolName": "func_task-mario_run-03",
  "PulseSequenceDetails": "%CustomerSeq%\\cmrr_mbep2d_bold",
  "ReceiveCoilActiveElements": "HC1-7;NC1,2",
  "ReceiveCoilName": "HeadNeck_64",
  "ReconMatrixPE": 104,
  "RepetitionTime": 1.49,
  "SAR": 0.0571006,
  "ScanOptions": "FS",
  "ScanningSequence": "EP",
  "SequenceName": "epfid2d1_104",
  "SequenceVariant": "SK\\SS",
  "SeriesDescription": "func_task-mario_run-03",
  "SeriesNumber": 17,
  "ShimSetting": [623, -7187, -8870, 216, 6, -124, 64, 3],
  "SliceThickness": 2,
  "SliceTiming": [0, 0.785, 0.1, 0.8825, 0.1975, 0.98, 0.295, 1.08, 0.3925, 1.1775, 0.49, 1.275, 0.59, 1.3725, 0.6875, 0, 0.785, 0.1, 0.8825, 0.1975, 0.98, 0.295, 1.08, 0.3925, 1.1775, 0.49, 1.275, 0.59, 1.3725, 0.6875, 0, 0.785, 0.1, 0.8825, 0.1975, 0.98, 0.295, 1.08, 0.3925, 1.1775, 0.49, 1.275, 0.59, 1.3725, 0.6875, 0, 0.785, 0.1, 0.8825, 0.1975, 0.98, 0.295, 1.08, 0.3925, 1.1775, 0.49, 1.275, 0.59, 1.3725, 0.6875],
  "SoftwareVersions": "syngo MR E11",
  "SpacingBetweenSlices": 2,
  "StationName": "MRC35049",
  "TaskName": "mario",
  "TotalReadoutTime": 0.0576811,
  "TxRefAmp": 289.257,
  "WipMemBlock": "8fe62919-3654-45f2-a17d-5c17a76f8815||Sequence: R016 ve11c/master r/e634e98; Dec 19 2017 11:00:25 by eja",
  "dcmmeta_affine": [
    [-1.9984997510910034, 0.022673169150948524, 0.07405977696180344, 104.39108276367188],
    [-0.016656626015901566, 1.7418261766433716, -0.9827329516410828, -51.51325607299805],
    [0.07564046233892441, 0.9826125502586365, 1.740330696105957, -93.09904479980469],
    [0.0, 0.0, 0.0, 1.0]
],
  "dcmmeta_reorient_transform": [
    [0.0, -1.0, 0.0, 103.0],
    [1.0, 0.0, 0.0, 0.0],
    [0.0, 0.0, 1.0, 0.0],
    [0.0, 0.0, 0.0, 1.0]
],
  "dcmmeta_shape": [104, 104, 60, 477],
  "dcmmeta_slice_dim": 2,
  "dcmmeta_version": 0.6,
  "global": {
    "const": {
      "AcquisitionMatrix": [104, 0, 0, 104],
      "AngioFlag": "N",
      "BitsAllocated": 16,
      "BitsStored": 16,
      "BodyPartExamined": "BRAIN",
      "Columns": 832,
      "EchoNumbers": 1,
      "EchoTime": 37.0,
      "EchoTrainLength": 104,
      "FlipAngle": 52.0,
      "HighBit": 15,
      "ImageOrientationPatient": [0.9992498533036, 0.00832831325952, 0.03782023097467, 0.01133658415732, 0.87091309413288, -0.4913062836231],
      "ImagePositionPatient": [-842.43334488251, -767.98258630204, 338.24789412502],
      "ImageType": [
        "ORIGINAL",
        "PRIMARY",
        "P",
        "MB",
        "ND",
        "MOSAIC"
],
      "ImagedNucleus": "1H",
      "ImagingFrequency": 123.258869,
      "InPlanePhaseEncodingDirection": "COL",
      "LargestImagePixelValue": 4095,
      "MRAcquisitionType": "2D",
      "MagneticFieldStrength": 3.0,
      "Manufacturer": "SIEMENS",
      "ManufacturerModelName": "Prisma_fit",
      "Modality": "MR",
      "NumberOfAverages": 1.0,
      "NumberOfPhaseEncodingSteps": 104,
      "PercentPhaseFieldOfView": 100.0,
      "PercentSampling": 100.0,
      "PerformedProcedureStepStartTime": "095830.568000",
      "PhotometricInterpretation": "MONOCHROME2",
      "PixelBandwidth": 2290.0,
      "PixelRepresentation": 0,
      "PixelSpacing": [2.0, 2.0],
      "ProtocolName": "func_task-mario_run-03",
      "RepetitionTime": 1490.0,
      "RescaleIntercept": -4096.0,
      "RescaleSlope": 2.0,
      "RescaleType": "US",
      "Rows": 832,
      "SAR": 0.05710061566599,
      "SamplesPerPixel": 1,
      "ScanOptions": "FS",
      "ScanningSequence": "EP",
      "SequenceName": "epfid2d1_104",
      "SequenceVariant": [
        "SK",
        "SS"
],
      "SeriesDescription": "func_task-mario_run-03",
      "SeriesNumber": 17,
      "SeriesTime": "111731.790000",
      "SliceLocation": -51.834088774309,
      "SliceThickness": 2.0,
      "SmallestImagePixelValue": 0,
      "SoftwareVersions": "syngo MR E11",
      "SpacingBetweenSlices": 1.9999999796313,
      "SpecificCharacterSet": "ISO_IR 100",
      "StudyID": "1",
      "StudyTime": "095830.510000",
      "TransmitCoilName": "Body",
      "VariableFlipAngleFlag": "N",
      "WindowCenterWidthExplanation": "Algo1",
      "dBdt": 0.0},
    "slices": {}
  },
  "time": {
    "samples": {
      "AcquisitionNumber": [1, 2, 3, 4, 5, 6, 7, 8, 9, 10, 11, 12, 13, 14, 15, 16, 17, 18, 19, 20, 21, 22, 23, 24, 25, 26, 27, 28, 29, 30, 31, 32, 33, 34, 35, 36, 37, 38, 39, 40, 41, 42, 43, 44, 45, 46, 47, 48, 49, 50, 51, 52, 53, 54, 55, 56, 57, 58, 59, 60, 61, 62, 63, 64, 65, 66, 67, 68, 69, 70, 71, 72, 73, 74, 75, 76, 77, 78, 79, 80, 81, 82, 83, 84, 85, 86, 87, 88, 89, 90, 91, 92, 93, 94, 95, 96, 97, 98, 99, 100, 101, 102, 103, 104, 105, 106, 107, 108, 109, 110, 111, 112, 113, 114, 115, 116, 117, 118, 119, 120, 121, 122, 123, 124, 125, 126, 127, 128, 129, 130, 131, 132, 133, 134, 135, 136, 137, 138, 139, 140, 141, 142, 143, 144, 145, 146, 147, 148, 149, 150, 151, 152, 153, 154, 155, 156, 157, 158, 159, 160, 161, 162, 163, 164, 165, 166, 167, 168, 169, 170, 171, 172, 173, 174, 175, 176, 177, 178, 179, 180, 181, 182, 183, 184, 185, 186, 187, 188, 189, 190, 191, 192, 193, 194, 195, 196, 197, 198, 199, 200, 201, 202, 203, 204, 205, 206, 207, 208, 209, 210, 211, 212, 213, 214, 215, 216, 217, 218, 219, 220, 221, 222, 223, 224, 225, 226, 227, 228, 229, 230, 231, 232, 233, 234, 235, 236, 237, 238, 239, 240, 241, 242, 243, 244, 245, 246, 247, 248, 249, 250, 251, 252, 253, 254, 255, 256, 257, 258, 259, 260, 261, 262, 263, 264, 265, 266, 267, 268, 269, 270, 271, 272, 273, 274, 275, 276, 277, 278, 279, 280, 281, 282, 283, 284, 285, 286, 287, 288, 289, 290, 291, 292, 293, 294, 295, 296, 297, 298, 299, 300, 301, 302, 303, 304, 305, 306, 307, 308, 309, 310, 311, 312, 313, 314, 315, 316, 317, 318, 319, 320, 321, 322, 323, 324, 325, 326, 327, 328, 329, 330, 331, 332, 333, 334, 335, 336, 337, 338, 339, 340, 341, 342, 343, 344, 345, 346, 347, 348, 349, 350, 351, 352, 353, 354, 355, 356, 357, 358, 359, 360, 361, 362, 363, 364, 365, 366, 367, 368, 369, 370, 371, 372, 373, 374, 375, 376, 377, 378, 379, 380, 381, 382, 383, 384, 385, 386, 387, 388, 389, 390, 391, 392, 393, 394, 395, 396, 397, 398, 399, 400, 401, 402, 403, 404, 405, 406, 407, 408, 409, 410, 411, 412, 413, 414, 415, 416, 417, 418, 419, 420, 421, 422, 423, 424, 425, 426, 427, 428, 429, 430, 431, 432, 433, 434, 435, 436, 437, 438, 439, 440, 441, 442, 443, 444, 445, 446, 447, 448, 449, 450, 451, 452, 453, 454, 455, 456, 457, 458, 459, 460, 461, 462, 463, 464, 465, 466, 467, 468, 469, 470, 471, 472, 473, 474, 475, 476, 477],
      "AcquisitionTime": ["111606.317500", "111607.807500", "111609.297500", "111610.787500", "111612.277500", "111613.767500", "111615.257500", "111616.747500", "111618.237500", "111619.727500", "111621.217500", "111622.707500", "111624.197500", "111625.687500", "111627.177500", "111628.667500", "111630.157500", "111631.647500", "111633.137500", "111634.627500", "111636.117500", "111637.607500", "111639.097500", "111640.587500", "111642.077500", "111643.567500", "111645.057500", "111646.547500", "111648.037500", "111649.527500", "111651.017500", "111652.507500", "111653.997500", "111655.487500", "111656.977500", "111658.467500", "111659.957500", "111701.447500", "111702.937500", "111704.427500", "111705.917500", "111707.407500", "111708.897500", "111710.387500", "111711.877500", "111713.367500", "111714.857500", "111716.347500", "111717.837500", "111719.327500", "111720.817500", "111722.307500", "111723.797500", "111725.287500", "111726.777500", "111728.267500", "111729.757500", "111731.247500", "111732.737500", "111734.227500", "111735.717500", "111737.207500", "111738.697500", "111740.187500", "111741.677500", "111743.167500", "111744.657500", "111746.147500", "111747.637500", "111749.127500", "111750.617500", "111752.107500", "111753.597500", "111755.087500", "111756.577500", "111758.067500", "111759.557500", "111801.047500", "111802.537500", "111804.027500", "111805.517500", "111807.007500", "111808.497500", "111809.987500", "111811.477500", "111812.967500", "111814.457500", "111815.947500", "111817.437500", "111818.927500", "111820.417500", "111821.907500", "111823.397500", "111824.887500", "111826.377500", "111827.867500", "111829.357500", "111830.847500", "111832.337500", "111833.827500", "111835.317500", "111836.807500", "111838.297500", "111839.787500", "111841.277500", "111842.767500", "111844.257500", "111845.747500", "111847.237500", "111848.727500", "111850.217500", "111851.707500", "111853.197500", "111854.687500", "111856.177500", "111857.667500", "111859.157500", "111900.647500", "111902.137500", "111903.627500", "111905.117500", "111906.607500", "111908.097500", "111909.587500", "111911.077500", "111912.567500", "111914.057500", "111915.547500", "111917.037500", "111918.527500", "111920.017500", "111921.507500", "111922.997500", "111924.487500", "111925.977500", "111927.467500", "111928.957500", "111930.447500", "111931.937500", "111933.427500", "111934.917500", "111936.407500", "111937.897500", "111939.387500", "111940.877500", "111942.367500", "111943.857500", "111945.347500", "111946.837500", "111948.327500", "111949.817500", "111951.307500", "111952.797500", "111954.287500", "111955.777500", "111957.267500", "111958.757500", "112000.247500", "112001.737500", "112003.227500", "112004.717500", "112006.207500", "112007.697500", "112009.187500", "112010.677500", "112012.167500", "112013.657500", "112015.147500", "112016.637500", "112018.127500", "112019.617500", "112021.107500", "112022.597500", "112024.087500", "112025.577500", "112027.067500", "112028.557500", "112030.047500", "112031.537500", "112033.027500", "112034.517500", "112036.007500", "112037.497500", "112038.987500", "112040.477500", "112041.967500", "112043.457500", "112044.947500", "112046.437500", "112047.927500", "112049.417500", "112050.907500", "112052.397500", "112053.887500", "112055.377500", "112056.867500", "112058.357500", "112059.847500", "112101.337500", "112102.827500", "112104.317500", "112105.807500", "112107.297500", "112108.787500", "112110.277500", "112111.767500", "112113.257500", "112114.747500", "112116.237500", "112117.727500", "112119.217500", "112120.707500", "112122.197500", "112123.687500", "112125.177500", "112126.667500", "112128.157500", "112129.647500", "112131.137500", "112132.627500", "112134.117500", "112135.607500", "112137.097500", "112138.587500", "112140.077500", "112141.567500", "112143.057500", "112144.547500", "112146.037500", "112147.527500", "112149.017500", "112150.507500", "112151.997500", "112153.487500", "112154.977500", "112156.467500", "112157.957500", "112159.447500", "112200.937500", "112202.427500", "112203.917500", "112205.407500", "112206.897500", "112208.387500", "112209.877500", "112211.367500", "112212.857500", "112214.347500", "112215.837500", "112217.327500", "112218.817500", "112220.307500", "112221.797500", "112223.287500", "112224.777500", "112226.267500", "112227.757500", "112229.247500", "112230.737500", "112232.227500", "112233.717500", "112235.207500", "112236.697500", "112238.187500", "112239.677500", "112241.167500", "112242.657500", "112244.147500", "112245.637500", "112247.127500", "112248.617500", "112250.107500", "112251.597500", "112253.087500", "112254.577500", "112256.067500", "112257.557500", "112259.047500", "112300.537500", "112302.027500", "112303.517500", "112305.007500", "112306.497500", "112307.987500", "112309.477500", "112310.967500", "112312.457500", "112313.947500", "112315.437500", "112316.927500", "112318.417500", "112319.907500", "112321.397500", "112322.887500", "112324.377500", "112325.867500", "112327.357500", "112328.847500", "112330.337500", "112331.827500", "112333.317500", "112334.807500", "112336.297500", "112337.787500", "112339.277500", "112340.767500", "112342.257500", "112343.747500", "112345.237500", "112346.727500", "112348.217500", "112349.707500", "112351.197500", "112352.687500", "112354.177500", "112355.667500", "112357.157500", "112358.647500", "112400.137500", "112401.627500", "112403.117500", "112404.607500", "112406.097500", "112407.587500", "112409.077500", "112410.567500", "112412.057500", "112413.547500", "112415.037500", "112416.527500", "112418.017500", "112419.507500", "112420.997500", "112422.487500", "112423.977500", "112425.467500", "112426.957500", "112428.447500", "112429.937500", "112431.427500", "112432.917500", "112434.407500", "112435.897500", "112437.387500", "112438.877500", "112440.367500", "112441.857500", "112443.347500", "112444.837500", "112446.327500", "112447.817500", "112449.307500", "112450.797500", "112452.287500", "112453.777500", "112455.267500", "112456.757500", "112458.247500", "112459.737500", "112501.227500", "112502.717500", "112504.207500", "112505.697500", "112507.187500", "112508.677500", "112510.167500", "112511.657500", "112513.147500", "112514.637500", "112516.127500", "112517.617500", "112519.107500", "112520.597500", "112522.087500", "112523.577500", "112525.067500", "112526.557500", "112528.047500", "112529.537500", "112531.027500", "112532.517500", "112534.007500", "112535.497500", "112536.987500", "112538.477500", "112539.967500", "112541.457500", "112542.947500", "112544.437500", "112545.927500", "112547.417500", "112548.907500", "112550.397500", "112551.887500", "112553.377500", "112554.867500", "112556.357500", "112557.847500", "112559.337500", "112600.827500", "112602.317500", "112603.807500", "112605.297500", "112606.787500", "112608.277500", "112609.767500", "112611.257500", "112612.747500", "112614.237500", "112615.727500", "112617.217500", "112618.707500", "112620.197500", "112621.687500", "112623.177500", "112624.667500", "112626.157500", "112627.647500", "112629.137500", "112630.627500", "112632.117500", "112633.607500", "112635.097500", "112636.587500", "112638.077500", "112639.567500", "112641.057500", "112642.547500", "112644.037500", "112645.527500", "112647.017500", "112648.507500", "112649.997500", "112651.487500", "112652.977500", "112654.467500", "112655.957500", "112657.447500", "112658.937500", "112700.427500", "112701.917500", "112703.407500", "112704.897500", "112706.387500", "112707.877500", "112709.367500", "112710.857500", "112712.347500", "112713.837500", "112715.327500", "112716.817500", "112718.307500", "112719.797500", "112721.287500", "112722.777500", "112724.267500", "112725.757500", "112727.247500", "112728.737500", "112730.227500", "112731.717500", "112733.207500", "112734.697500", "112736.187500", "112737.677500", "112739.167500", "112740.657500", "112742.147500", "112743.637500", "112745.127500", "112746.617500", "112748.107500", "112749.597500", "112751.087500", "112752.577500", "112754.067500", "112755.557500"],
      "ContentTime": ["111731.792000", "111731.861000", "111731.864000", "111731.866000", "111731.869000", "111731.871000", "111731.874000", "111731.877000", "111731.879000", "111731.882000", "111731.884000", "111731.887000", "111731.889000", "111731.892000", "111731.895000", "111731.897000", "111731.900000", "111731.902000", "111731.905000", "111731.908000", "111731.910000", "111731.916000", "111731.919000", "111731.921000", "111731.924000", "111731.926000", "111731.929000", "111731.932000", "111731.934000", "111731.937000", "111731.939000", "111751.715000", "111751.718000", "111751.720000", "111751.723000", "111751.725000", "111751.728000", "111751.731000", "111751.733000", "111751.736000", "111751.738000", "111751.741000", "111751.743000", "111751.746000", "111751.748000", "111751.751000", "111751.753000", "111751.756000", "111751.759000", "111751.761000", "111751.764000", "111811.709000", "111811.712000", "111811.715000", "111811.717000", "111811.720000", "111811.722000", "111811.725000", "111811.727000", "111811.730000", "111811.733000", "111811.735000", "111811.738000", "111811.740000", "111811.743000", "111811.745000", "111811.748000", "111811.751000", "111811.753000", "111811.756000", "111811.759000", "111831.725000", "111831.728000", "111831.731000", "111831.733000", "111831.736000", "111831.738000", "111831.741000", "111831.743000", "111831.746000", "111831.748000", "111831.763000", "111831.766000", "111831.834000", "111831.837000", "111831.840000", "111831.843000", "111831.845000", "111831.848000", "111831.850000", "111831.853000", "111911.780000", "111911.782000", "111911.785000", "111911.787000", "111911.790000", "111911.793000", "111911.795000", "111911.798000", "111911.801000", "111911.803000", "111911.806000", "111911.808000", "111911.811000", "111911.814000", "111911.816000", "111911.819000", "111911.821000", "111911.824000", "111911.827000", "111911.829000", "111911.832000", "111911.835000", "111911.837000", "111911.840000", "111911.842000", "111911.845000", "111911.847000", "111911.850000", "111911.853000", "111911.859000", "111911.862000", "111911.864000", "111911.867000", "111951.747000", "111951.750000", "111951.752000", "111951.755000", "111951.758000", "111951.760000", "111951.764000", "111951.771000", "111951.775000", "111951.778000", "111951.782000", "111951.784000", "111951.787000", "111951.790000", "111951.805000", "111951.808000", "111951.810000", "111951.813000", "111951.816000", "111951.818000", "111951.834000", "111951.837000", "111951.840000", "111951.842000", "111951.845000", "111951.847000", "112011.682000", "112011.685000", "112011.687000", "112011.690000", "112011.693000", "112011.695000", "112011.698000", "112011.701000", "112011.703000", "112011.706000", "112011.708000", "112011.711000", "112011.713000", "112011.716000", "112051.748000", "112051.751000", "112051.753000", "112051.756000", "112051.758000", "112051.761000", "112051.764000", "112051.766000", "112051.807000", "112051.810000", "112051.812000", "112051.815000", "112051.817000", "112051.820000", "112051.823000", "112051.825000", "112051.828000", "112051.831000", "112051.833000", "112051.836000", "112051.838000", "112051.841000", "112051.844000", "112051.846000", "112051.849000", "112051.851000", "112051.854000", "112131.738000", "112131.741000", "112131.743000", "112131.746000", "112131.753000", "112131.756000", "112131.758000", "112131.761000", "112131.764000", "112131.766000", "112131.814000", "112131.817000", "112131.819000", "112131.822000", "112131.825000", "112131.827000", "112131.830000", "112131.832000", "112131.835000", "112131.837000", "112131.840000", "112131.843000", "112131.845000", "112131.848000", "112131.851000", "112131.853000", "112211.751000", "112211.754000", "112211.756000", "112211.759000", "112211.762000", "112211.764000", "112211.767000", "112211.770000", "112211.772000", "112211.775000", "112211.777000", "112211.780000", "112211.783000", "112211.785000", "112211.788000", "112211.791000", "112211.793000", "112211.796000", "112211.798000", "112211.801000", "112211.805000", "112211.809000", "112211.812000", "112211.825000", "112211.827000", "112211.830000", "112211.833000", "112251.748000", "112251.750000", "112251.753000", "112251.756000", "112251.758000", "112251.761000", "112251.764000", "112251.767000", "112251.770000", "112251.773000", "112251.775000", "112251.778000", "112251.780000", "112251.783000", "112251.786000", "112251.788000", "112251.791000", "112251.794000", "112251.796000", "112251.799000", "112251.801000", "112251.804000", "112251.807000", "112251.809000", "112251.812000", "112251.814000", "112251.817000", "112331.756000", "112331.758000", "112331.761000", "112331.763000", "112331.766000", "112331.769000", "112331.771000", "112331.774000", "112331.776000", "112331.779000", "112331.782000", "112331.784000", "112331.787000", "112331.789000", "112331.792000", "112331.794000", "112331.797000", "112331.800000", "112331.802000", "112331.805000", "112331.807000", "112331.810000", "112331.812000", "112331.815000", "112331.818000", "112331.820000", "112331.823000", "112411.741000", "112411.744000", "112411.746000", "112411.749000", "112411.751000", "112411.754000", "112411.756000", "112411.759000", "112411.762000", "112411.764000", "112411.767000", "112411.769000", "112411.772000", "112411.774000", "112411.777000", "112411.779000", "112411.782000", "112411.784000", "112411.787000", "112411.790000", "112411.792000", "112411.795000", "112411.797000", "112411.800000", "112411.802000", "112411.805000", "112411.808000", "112451.755000", "112451.757000", "112451.760000", "112451.763000", "112451.765000", "112451.768000", "112451.771000", "112451.773000", "112451.776000", "112451.778000", "112451.781000", "112451.783000", "112451.786000", "112451.788000", "112451.791000", "112451.794000", "112451.796000", "112451.799000", "112451.801000", "112451.804000", "112451.807000", "112451.809000", "112451.812000", "112451.814000", "112451.817000", "112451.819000", "112451.822000", "112531.741000", "112531.744000", "112531.746000", "112531.749000", "112531.751000", "112531.754000", "112531.757000", "112531.759000", "112531.762000", "112531.764000", "112531.767000", "112531.883000", "112531.885000", "112531.888000", "112531.890000", "112531.893000", "112531.896000", "112531.903000", "112531.906000", "112531.908000", "112531.911000", "112531.914000", "112531.916000", "112531.919000", "112531.921000", "112531.924000", "112531.927000", "112611.743000", "112611.746000", "112611.749000", "112611.751000", "112611.759000", "112611.762000", "112611.765000", "112611.767000", "112611.843000", "112611.846000", "112611.848000", "112611.851000", "112611.854000", "112611.856000", "112611.859000", "112611.861000", "112611.864000", "112611.867000", "112611.869000", "112611.872000", "112611.874000", "112611.877000", "112611.880000", "112611.882000", "112611.885000", "112611.887000", "112651.751000", "112651.754000", "112651.757000", "112651.759000", "112651.762000", "112651.764000", "112651.767000", "112651.815000", "112651.818000", "112651.820000", "112651.823000", "112651.825000", "112651.828000", "112651.831000", "112651.833000", "112651.836000", "112651.838000", "112651.841000", "112651.843000", "112651.846000", "112651.848000", "112651.851000", "112651.854000", "112651.856000", "112651.859000", "112651.861000", "112651.864000", "112731.738000", "112731.741000", "112731.743000", "112731.746000", "112731.748000", "112731.751000", "112731.754000", "112731.756000", "112731.759000", "112731.761000", "112731.764000", "112731.767000", "112731.828000", "112731.831000", "112731.834000", "112731.836000", "112731.839000", "112731.842000", "112731.844000", "112731.847000", "112731.849000", "112731.852000", "112731.855000", "112731.857000", "112731.860000", "112731.862000", "112731.865000", "112757.646000", "112757.649000", "112757.651000", "112757.654000", "112757.666000", "112757.669000", "112757.672000", "112757.674000", "112757.677000", "112757.680000", "112757.683000", "112757.685000", "112757.688000", "112757.691000", "112757.693000", "112757.696000", "112757.699000", "112757.701000"],
