{
  "AcquisitionMatrixPE": 104,
  "AcquisitionNumber": 1,
  "AcquisitionTime": "10:50:20.655000",
  "BandwidthPerPixelPhaseEncode": 17.17,
  "BaseResolution": 104,
  "BodyPartExamined": "BRAIN",
  "CoilCombinationMethod": "Sum of Squares",
  "ConsistencyInfo": "N4_VE11C_LATEST_20160120",
  "ConversionSoftware": "dcm2niix",
  "ConversionSoftwareVersion": "v1.0.20211006",
  "DerivedVendorReportedEchoSpacing": 0.000560011,
  "DeviceSerialNumber": "167006",
  "DwellTime": 2.1e-06,
  "EchoTime": 0.037,
  "EchoTrainLength": 104,
  "EffectiveEchoSpacing": 0.000560011,
  "FlipAngle": 52,
  "HeudiconvVersion": "0.10.0",
  "ImageComments": "Unaliased MB4/PE3/LB",
  "ImageOrientationPatientDICOM": [0.99925, 0.00832831, 0.0378202, 0.0113366, 0.870913, -0.491306],
  "ImageOrientationText": "Tra>Cor(-29.5)>Sag(2.1)",
  "ImageType": [
    "ORIGINAL",
    "PRIMARY",
    "M",
    "MB",
    "ND",
    "MOSAIC"
],
  "ImagingFrequency": 123.259,
  "InPlanePhaseEncodingDirectionDICOM": "COL",
  "InstitutionAddress": "Chemin Queen-Mary 4565,Montreal,District,CA,H3W 1W5",
  "InstitutionName": "IUGM",
  "InstitutionalDepartmentName": "Department",
  "MRAcquisitionType": "2D",
  "MagneticFieldStrength": 3,
  "Manufacturer": "Siemens",
  "ManufacturersModelName": "Prisma_fit",
  "MatrixCoilMode": "SENSE",
  "Modality": "MR",
  "MultibandAccelerationFactor": 4,
  "PartialFourier": 1,
  "PatientPosition": "HFS",
  "PercentPhaseFOV": 100,
  "PercentSampling": 100,
  "PhaseEncodingDirection": "j",
  "PhaseEncodingSteps": 104,
  "PhaseResolution": 1,
  "PixelBandwidth": 2290,
  "ProcedureStepDescription": "games^mario",
  "ProtocolName": "func_task-mario_run-01",
  "PulseSequenceDetails": "%CustomerSeq%\\cmrr_mbep2d_bold",
  "ReceiveCoilActiveElements": "HC1-7;NC1,2",
  "ReceiveCoilName": "HeadNeck_64",
  "ReconMatrixPE": 104,
  "RepetitionTime": 1.49,
  "SAR": 0.0571006,
  "ScanOptions": "FS",
  "ScanningSequence": "EP",
  "SequenceName": "epfid2d1_104",
  "SequenceVariant": "SK\\SS",
  "SeriesDescription": "func_task-mario_run-01",
  "SeriesNumber": 10,
  "ShimSetting": [623, -7187, -8870, 216, 6, -124, 64, 3],
  "SliceThickness": 2,
  "SliceTiming": [0, 0.7825, 0.0975, 0.88, 0.195, 0.98, 0.2925, 1.0775, 0.39, 1.175, 0.49, 1.2725, 0.5875, 1.37, 0.685, 0, 0.7825, 0.0975, 0.88, 0.195, 0.98, 0.2925, 1.0775, 0.39, 1.175, 0.49, 1.2725, 0.5875, 1.37, 0.685, 0, 0.7825, 0.0975, 0.88, 0.195, 0.98, 0.2925, 1.0775, 0.39, 1.175, 0.49, 1.2725, 0.5875, 1.37, 0.685, 0, 0.7825, 0.0975, 0.88, 0.195, 0.98, 0.2925, 1.0775, 0.39, 1.175, 0.49, 1.2725, 0.5875, 1.37, 0.685],
  "SoftwareVersions": "syngo MR E11",
  "SpacingBetweenSlices": 2,
  "StationName": "MRC35049",
  "TaskName": "mario",
  "TotalReadoutTime": 0.0576811,
  "TxRefAmp": 289.257,
  "WipMemBlock": "df6e2cb7-d627-479d-b4ff-8ab4d984f715||Sequence: R016 ve11c/master r/e634e98; Dec 19 2017 11:00:25 by eja",
  "dcmmeta_affine": [
    [-1.9984997510910034, 0.022673169150948524, 0.07405977696180344, 104.39108276367188],
    [-0.016656626015901566, 1.7418261766433716, -0.9827329516410828, -51.51325607299805],
    [0.07564046233892441, 0.9826125502586365, 1.740330696105957, -93.09904479980469],
    [0.0, 0.0, 0.0, 1.0]
],
  "dcmmeta_reorient_transform": [
    [0.0, -1.0, 0.0, 103.0],
    [1.0, 0.0, 0.0, 0.0],
    [0.0, 0.0, 1.0, 0.0],
    [0.0, 0.0, 0.0, 1.0]
],
  "dcmmeta_shape": [104, 104, 60, 474],
  "dcmmeta_slice_dim": 2,
  "dcmmeta_version": 0.6,
  "global": {
    "const": {
      "AcquisitionMatrix": [104, 0, 0, 104],
      "AngioFlag": "N",
      "BitsAllocated": 16,
      "BitsStored": 16,
      "BodyPartExamined": "BRAIN",
      "Columns": 832,
      "EchoNumbers": 1,
      "EchoTime": 37.0,
      "EchoTrainLength": 104,
      "FlipAngle": 52.0,
      "HighBit": 15,
      "ImageOrientationPatient": [0.9992498533036, 0.00832831325952, 0.03782023097467, 0.01133658415732, 0.87091309413288, -0.4913062836231],
      "ImagePositionPatient": [-842.43334488251, -767.98258630204, 338.24789412502],
      "ImageType": [
        "ORIGINAL",
        "PRIMARY",
        "M",
        "MB",
        "ND",
        "MOSAIC"
],
      "ImagedNucleus": "1H",
      "ImagingFrequency": 123.258852,
      "InPlanePhaseEncodingDirection": "COL",
      "MRAcquisitionType": "2D",
      "MagneticFieldStrength": 3.0,
      "Manufacturer": "SIEMENS",
      "ManufacturerModelName": "Prisma_fit",
      "Modality": "MR",
      "NumberOfAverages": 1.0,
      "NumberOfPhaseEncodingSteps": 104,
      "PercentPhaseFieldOfView": 100.0,
      "PercentSampling": 100.0,
      "PerformedProcedureStepStartTime": "095830.568000",
      "PhotometricInterpretation": "MONOCHROME2",
      "PixelBandwidth": 2290.0,
      "PixelRepresentation": 0,
      "PixelSpacing": [2.0, 2.0],
      "ProtocolName": "func_task-mario_run-01",
      "RepetitionTime": 1490.0,
      "Rows": 832,
      "SAR": 0.05710061566599,
      "SamplesPerPixel": 1,
      "ScanOptions": "FS",
      "ScanningSequence": "EP",
      "SequenceName": "epfid2d1_104",
      "SequenceVariant": [
        "SK",
        "SS"
],
      "SeriesDescription": "func_task-mario_run-01",
      "SeriesNumber": 10,
      "SeriesTime": "105124.398000",
      "SliceLocation": -51.834088774309,
      "SliceThickness": 2.0,
      "SmallestImagePixelValue": 0,
      "SoftwareVersions": "syngo MR E11",
      "SpacingBetweenSlices": 1.9999999796313,
      "SpecificCharacterSet": "ISO_IR 100",
      "StudyID": "1",
      "StudyTime": "095830.510000",
      "TransmitCoilName": "Body",
      "VariableFlipAngleFlag": "N",
      "WindowCenterWidthExplanation": "Algo1",
      "dBdt": 0.0},
    "slices": {}
  },
  "time": {
    "samples": {
      "AcquisitionNumber": [1, 2, 3, 4, 5, 6, 7, 8, 9, 10, 11, 12, 13, 14, 15, 16, 17, 18, 19, 20, 21, 22, 23, 24, 25, 26, 27, 28, 29, 30, 31, 32, 33, 34, 35, 36, 37, 38, 39, 40, 41, 42, 43, 44, 45, 46, 47, 48, 49, 50, 51, 52, 53, 54, 55, 56, 57, 58, 59, 60, 61, 62, 63, 64, 65, 66, 67, 68, 69, 70, 71, 72, 73, 74, 75, 76, 77, 78, 79, 80, 81, 82, 83, 84, 85, 86, 87, 88, 89, 90, 91, 92, 93, 94, 95, 96, 97, 98, 99, 100, 101, 102, 103, 104, 105, 106, 107, 108, 109, 110, 111, 112, 113, 114, 115, 116, 117, 118, 119, 120, 121, 122, 123, 124, 125, 126, 127, 128, 129, 130, 131, 132, 133, 134, 135, 136, 137, 138, 139, 140, 141, 142, 143, 144, 145, 146, 147, 148, 149, 150, 151, 152, 153, 154, 155, 156, 157, 158, 159, 160, 161, 162, 163, 164, 165, 166, 167, 168, 169, 170, 171, 172, 173, 174, 175, 176, 177, 178, 179, 180, 181, 182, 183, 184, 185, 186, 187, 188, 189, 190, 191, 192, 193, 194, 195, 196, 197, 198, 199, 200, 201, 202, 203, 204, 205, 206, 207, 208, 209, 210, 211, 212, 213, 214, 215, 216, 217, 218, 219, 220, 221, 222, 223, 224, 225, 226, 227, 228, 229, 230, 231, 232, 233, 234, 235, 236, 237, 238, 239, 240, 241, 242, 243, 244, 245, 246, 247, 248, 249, 250, 251, 252, 253, 254, 255, 256, 257, 258, 259, 260, 261, 262, 263, 264, 265, 266, 267, 268, 269, 270, 271, 272, 273, 274, 275, 276, 277, 278, 279, 280, 281, 282, 283, 284, 285, 286, 287, 288, 289, 290, 291, 292, 293, 294, 295, 296, 297, 298, 299, 300, 301, 302, 303, 304, 305, 306, 307, 308, 309, 310, 311, 312, 313, 314, 315, 316, 317, 318, 319, 320, 321, 322, 323, 324, 325, 326, 327, 328, 329, 330, 331, 332, 333, 334, 335, 336, 337, 338, 339, 340, 341, 342, 343, 344, 345, 346, 347, 348, 349, 350, 351, 352, 353, 354, 355, 356, 357, 358, 359, 360, 361, 362, 363, 364, 365, 366, 367, 368, 369, 370, 371, 372, 373, 374, 375, 376, 377, 378, 379, 380, 381, 382, 383, 384, 385, 386, 387, 388, 389, 390, 391, 392, 393, 394, 395, 396, 397, 398, 399, 400, 401, 402, 403, 404, 405, 406, 407, 408, 409, 410, 411, 412, 413, 414, 415, 416, 417, 418, 419, 420, 421, 422, 423, 424, 425, 426, 427, 428, 429, 430, 431, 432, 433, 434, 435, 436, 437, 438, 439, 440, 441, 442, 443, 444, 445, 446, 447, 448, 449, 450, 451, 452, 453, 454, 455, 456, 457, 458, 459, 460, 461, 462, 463, 464, 465, 466, 467, 468, 469, 470, 471, 472, 473, 474],
      "AcquisitionTime": ["105020.655000", "105022.145000", "105023.635000", "105025.125000", "105026.615000", "105028.105000", "105029.595000", "105031.085000", "105032.575000", "105034.065000", "105035.555000", "105037.045000", "105038.535000", "105040.025000", "105041.515000", "105043.005000", "105044.495000", "105045.985000", "105047.475000", "105048.965000", "105050.455000", "105051.945000", "105053.435000", "105054.925000", "105056.415000", "105057.905000", "105059.395000", "105100.885000", "105102.375000", "105103.865000", "105105.355000", "105106.845000", "105108.335000", "105109.825000", "105111.315000", "105112.805000", "105114.295000", "105115.785000", "105117.275000", "105118.765000", "105120.255000", "105121.745000", "105123.235000", "105124.725000", "105126.215000", "105127.705000", "105129.195000", "105130.685000", "105132.175000", "105133.665000", "105135.155000", "105136.645000", "105138.135000", "105139.625000", "105141.115000", "105142.605000", "105144.095000", "105145.585000", "105147.075000", "105148.565000", "105150.055000", "105151.545000", "105153.035000", "105154.525000", "105156.015000", "105157.505000", "105158.995000", "105200.485000", "105201.975000", "105203.465000", "105204.955000", "105206.445000", "105207.935000", "105209.425000", "105210.915000", "105212.405000", "105213.895000", "105215.385000", "105216.875000", "105218.365000", "105219.855000", "105221.345000", "105222.835000", "105224.325000", "105225.815000", "105227.305000", "105228.795000", "105230.285000", "105231.775000", "105233.265000", "105234.755000", "105236.245000", "105237.735000", "105239.225000", "105240.715000", "105242.205000", "105243.695000", "105245.185000", "105246.675000", "105248.165000", "105249.655000", "105251.145000", "105252.635000", "105254.125000", "105255.615000", "105257.105000", "105258.595000", "105300.085000", "105301.575000", "105303.065000", "105304.555000", "105306.045000", "105307.535000", "105309.025000", "105310.515000", "105312.005000", "105313.495000", "105314.985000", "105316.475000", "105317.965000", "105319.455000", "105320.945000", "105322.435000", "105323.925000", "105325.415000", "105326.905000", "105328.395000", "105329.885000", "105331.375000", "105332.865000", "105334.355000", "105335.845000", "105337.335000", "105338.825000", "105340.315000", "105341.805000", "105343.295000", "105344.785000", "105346.275000", "105347.765000", "105349.255000", "105350.745000", "105352.235000", "105353.725000", "105355.215000", "105356.705000", "105358.195000", "105359.685000", "105401.175000", "105402.665000", "105404.155000", "105405.645000", "105407.135000", "105408.625000", "105410.115000", "105411.605000", "105413.095000", "105414.585000", "105416.075000", "105417.565000", "105419.055000", "105420.545000", "105422.035000", "105423.525000", "105425.015000", "105426.505000", "105427.995000", "105429.485000", "105430.975000", "105432.465000", "105433.955000", "105435.445000", "105436.935000", "105438.425000", "105439.915000", "105441.405000", "105442.895000", "105444.385000", "105445.875000", "105447.365000", "105448.855000", "105450.345000", "105451.835000", "105453.325000", "105454.815000", "105456.305000", "105457.795000", "105459.285000", "105500.775000", "105502.265000", "105503.755000", "105505.245000", "105506.735000", "105508.225000", "105509.715000", "105511.205000", "105512.695000", "105514.185000", "105515.675000", "105517.165000", "105518.655000", "105520.145000", "105521.635000", "105523.125000", "105524.615000", "105526.105000", "105527.595000", "105529.085000", "105530.575000", "105532.065000", "105533.555000", "105535.045000", "105536.535000", "105538.025000", "105539.515000", "105541.005000", "105542.495000", "105543.985000", "105545.475000", "105546.965000", "105548.455000", "105549.945000", "105551.435000", "105552.925000", "105554.415000", "105555.905000", "105557.395000", "105558.885000", "105600.375000", "105601.865000", "105603.355000", "105604.845000", "105606.335000", "105607.825000", "105609.315000", "105610.805000", "105612.295000", "105613.785000", "105615.275000", "105616.765000", "105618.255000", "105619.745000", "105621.235000", "105622.725000", "105624.215000", "105625.705000", "105627.195000", "105628.685000", "105630.175000", "105631.665000", "105633.155000", "105634.645000", "105636.135000", "105637.625000", "105639.115000", "105640.605000", "105642.095000", "105643.585000", "105645.075000", "105646.565000", "105648.055000", "105649.545000", "105651.035000", "105652.525000", "105654.015000", "105655.505000", "105656.995000", "105658.485000", "105659.975000", "105701.465000", "105702.955000", "105704.445000", "105705.935000", "105707.425000", "105708.915000", "105710.405000", "105711.895000", "105713.385000", "105714.875000", "105716.365000", "105717.855000", "105719.345000", "105720.835000", "105722.325000", "105723.815000", "105725.305000", "105726.795000", "105728.285000", "105729.775000", "105731.265000", "105732.755000", "105734.245000", "105735.735000", "105737.225000", "105738.715000", "105740.205000", "105741.695000", "105743.185000", "105744.675000", "105746.165000", "105747.655000", "105749.145000", "105750.635000", "105752.125000", "105753.615000", "105755.105000", "105756.595000", "105758.085000", "105759.575000", "105801.065000", "105802.555000", "105804.045000", "105805.535000", "105807.025000", "105808.515000", "105810.005000", "105811.495000", "105812.985000", "105814.475000", "105815.965000", "105817.455000", "105818.945000", "105820.435000", "105821.925000", "105823.415000", "105824.905000", "105826.395000", "105827.885000", "105829.375000", "105830.865000", "105832.355000", "105833.845000", "105835.335000", "105836.825000", "105838.315000", "105839.805000", "105841.295000", "105842.785000", "105844.275000", "105845.765000", "105847.255000", "105848.745000", "105850.235000", "105851.725000", "105853.215000", "105854.705000", "105856.195000", "105857.685000", "105859.175000", "105900.665000", "105902.155000", "105903.645000", "105905.135000", "105906.625000", "105908.115000", "105909.605000", "105911.095000", "105912.585000", "105914.075000", "105915.565000", "105917.055000", "105918.545000", "105920.035000", "105921.525000", "105923.015000", "105924.505000", "105925.995000", "105927.485000", "105928.975000", "105930.465000", "105931.955000", "105933.445000", "105934.935000", "105936.425000", "105937.915000", "105939.405000", "105940.895000", "105942.385000", "105943.875000", "105945.365000", "105946.855000", "105948.345000", "105949.835000", "105951.325000", "105952.815000", "105954.305000", "105955.795000", "105957.285000", "105958.775000", "110000.265000", "110001.755000", "110003.245000", "110004.735000", "110006.225000", "110007.715000", "110009.205000", "110010.695000", "110012.185000", "110013.675000", "110015.165000", "110016.655000", "110018.145000", "110019.635000", "110021.125000", "110022.615000", "110024.105000", "110025.595000", "110027.085000", "110028.575000", "110030.065000", "110031.555000", "110033.045000", "110034.535000", "110036.025000", "110037.515000", "110039.005000", "110040.495000", "110041.985000", "110043.475000", "110044.965000", "110046.455000", "110047.945000", "110049.435000", "110050.925000", "110052.415000", "110053.905000", "110055.395000", "110056.885000", "110058.375000", "110059.865000", "110101.355000", "110102.845000", "110104.335000", "110105.825000", "110107.315000", "110108.805000", "110110.295000", "110111.785000", "110113.275000", "110114.765000", "110116.255000", "110117.745000", "110119.235000", "110120.725000", "110122.215000", "110123.705000", "110125.195000", "110126.685000", "110128.175000", "110129.665000", "110131.155000", "110132.645000", "110134.135000", "110135.625000", "110137.115000", "110138.605000", "110140.095000", "110141.585000", "110143.075000", "110144.565000", "110146.055000", "110147.545000", "110149.035000", "110150.525000", "110152.015000", "110153.505000", "110154.995000", "110156.485000", "110157.975000", "110159.465000", "110200.955000", "110202.445000", "110203.935000", "110205.425000"],
      "ContentTime": ["105124.402000", "105124.405000", "105124.409000", "105124.412000", "105124.422000", "105124.428000", "105124.432000", "105124.440000", "105124.444000", "105144.369000", "105144.373000", "105144.376000", "105144.380000", "105144.383000", "105144.386000", "105144.390000", "105144.393000", "105144.396000", "105144.400000", "105144.403000", "105144.406000", "105144.410000", "105144.413000", "105144.417000", "105144.420000", "105144.423000", "105144.427000", "105144.430000", "105144.433000", "105224.368000", "105224.372000", "105224.375000", "105224.379000", "105224.382000", "105224.386000", "105224.389000", "105224.392000", "105224.396000", "105224.399000", "105224.402000", "105224.406000", "105224.409000", "105224.413000", "105224.416000", "105224.419000", "105224.423000", "105224.426000", "105224.430000", "105224.433000", "105224.436000", "105224.440000", "105224.443000", "105224.447000", "105224.450000", "105224.454000", "105224.457000", "105224.461000", "105224.465000", "105224.468000", "105224.472000", "105224.475000", "105224.490000", "105224.494000", "105224.497000", "105224.500000", "105224.504000", "105224.507000", "105224.511000", "105244.368000", "105244.372000", "105244.376000", "105244.379000", "105244.382000", "105244.386000", "105244.402000", "105244.406000", "105244.409000", "105244.412000", "105244.416000", "105244.419000", "105244.423000", "105244.426000", "105244.430000", "105244.433000", "105244.436000", "105244.440000", "105244.443000", "105244.447000", "105244.450000", "105304.368000", "105304.372000", "105304.375000", "105304.379000", "105304.382000", "105304.385000", "105304.389000", "105304.392000", "105304.395000", "105304.399000", "105304.402000", "105304.405000", "105304.409000", "105304.412000", "105304.416000", "105304.419000", "105304.423000", "105304.426000", "105304.429000", "105304.433000", "105344.369000", "105344.373000", "105344.376000", "105344.380000", "105344.383000", "105344.387000", "105344.390000", "105344.400000", "105344.404000", "105344.407000", "105344.411000", "105344.414000", "105344.418000", "105344.421000", "105344.424000", "105344.428000", "105344.431000", "105344.435000", "105344.438000", "105344.441000", "105344.445000", "105344.448000", "105344.452000", "105344.455000", "105344.459000", "105344.462000", "105344.466000", "105424.368000", "105424.372000", "105424.375000", "105424.379000", "105424.382000", "105424.385000", "105424.389000", "105424.392000", "105424.396000", "105424.399000", "105424.402000", "105424.406000", "105424.409000", "105424.412000", "105424.417000", "105424.420000", "105424.424000", "105424.427000", "105424.431000", "105424.434000", "105424.437000", "105424.454000", "105424.458000", "105424.461000", "105424.465000", "105424.468000", "105504.368000", "105504.372000", "105504.376000", "105504.379000", "105504.382000", "105504.386000", "105504.389000", "105504.393000", "105504.396000", "105504.400000", "105504.403000", "105504.407000", "105504.410000", "105504.413000", "105504.417000", "105504.420000", "105504.424000", "105504.427000", "105504.430000", "105504.434000", "105504.437000", "105504.441000", "105504.444000", "105504.448000", "105504.451000", "105504.454000", "105504.458000", "105544.368000", "105544.372000", "105544.375000", "105544.379000", "105544.382000", "105544.386000", "105544.389000", "105544.393000", "105544.396000", "105544.400000", "105544.404000", "105544.408000", "105544.411000", "105544.415000", "105544.418000", "105544.422000", "105544.425000", "105544.429000", "105544.432000", "105544.435000", "105544.439000", "105544.443000", "105544.446000", "105544.449000", "105544.453000", "105544.456000", "105544.460000", "105624.369000", "105624.373000", "105624.377000", "105624.380000", "105624.384000", "105624.387000", "105624.390000", "105624.394000", "105624.397000", "105624.401000", "105624.404000", "105624.407000", "105624.411000", "105624.414000", "105624.418000", "105624.421000", "105624.424000", "105624.428000", "105624.431000", "105624.435000", "105624.438000", "105624.441000", "105624.445000", "105624.448000", "105624.452000", "105624.455000", "105624.458000", "105704.368000", "105704.372000", "105704.375000", "105704.389000", "105704.393000", "105704.396000", "105704.399000", "105704.403000", "105704.406000", "105704.409000", "105704.413000", "105704.416000", "105704.420000", "105704.423000", "105704.427000", "105704.430000", "105704.433000", "105704.437000", "105704.440000", "105704.444000", "105704.447000", "105704.450000", "105704.454000", "105704.457000", "105704.460000", "105704.464000", "105704.467000", "105744.368000", "105744.372000", "105744.376000", "105744.379000", "105744.382000", "105744.386000", "105744.390000", "105744.393000", "105744.396000", "105744.400000", "105744.403000", "105744.407000", "105744.410000", "105744.413000", "105744.417000", "105744.420000", "105744.424000", "105744.427000", "105744.431000", "105744.434000", "105744.438000", "105744.441000", "105744.445000", "105744.448000", "105744.452000", "105744.455000", "105744.459000", "105824.369000", "105824.373000", "105824.377000", "105824.380000", "105824.384000", "105824.387000", "105824.391000", "105824.394000", "105824.398000", "105824.401000", "105824.404000", "105824.408000", "105824.411000", "105824.415000", "105824.418000", "105824.422000", "105824.426000", "105824.429000", "105824.433000", "105824.436000", "105824.440000", "105824.443000", "105824.447000", "105824.451000", "105824.455000", "105824.458000", "105904.368000", "105904.372000", "105904.376000", "105904.379000", "105904.382000", "105904.386000", "105904.389000", "105904.392000", "105904.396000", "105904.399000", "105904.403000", "105904.406000", "105904.409000", "105904.413000", "105904.416000", "105904.420000", "105904.423000", "105904.427000", "105904.430000", "105904.433000", "105904.437000", "105904.440000", "105904.443000", "105904.447000", "105904.461000", "105904.464000", "105904.468000", "105944.368000", "105944.372000", "105944.375000", "105944.379000", "105944.382000", "105944.386000", "105944.389000", "105944.393000", "105944.396000", "105944.399000", "105944.403000", "105944.406000", "105944.410000", "105944.413000", "105944.416000", "105944.420000", "105944.423000", "105944.427000", "105944.430000", "105944.433000", "105944.437000", "105944.440000", "105944.444000", "105944.447000", "105944.450000", "105944.454000", "105944.457000", "110024.370000", "110024.373000", "110024.377000", "110024.380000", "110024.383000", "110024.387000", "110024.390000", "110024.394000", "110024.397000", "110024.400000", "110024.404000", "110024.407000", "110024.411000", "110024.414000", "110024.417000", "110024.421000", "110024.424000", "110024.428000", "110024.431000", "110024.434000", "110024.438000", "110024.441000", "110024.445000", "110024.448000", "110024.452000", "110024.455000", "110024.459000", "110104.369000", "110104.373000", "110104.377000", "110104.380000", "110104.383000", "110104.387000", "110104.390000", "110104.394000", "110104.397000", "110104.400000", "110104.404000", "110104.407000", "110104.411000", "110104.414000", "110104.418000", "110104.421000", "110104.424000", "110104.428000", "110104.433000", "110104.436000", "110104.440000", "110104.443000", "110104.447000", "110104.450000", "110104.454000", "110104.457000", "110104.461000", "110144.368000", "110144.372000", "110144.375000", "110144.379000", "110144.382000", "110144.386000", "110144.389000", "110144.393000", "110144.396000", "110144.400000", "110144.403000", "110144.406000", "110144.410000", "110144.414000", "110144.417000", "110144.420000", "110144.424000", "110144.427000", "110144.431000", "110144.434000", "110144.437000", "110144.441000", "110144.444000", "110144.448000", "110144.451000", "110144.455000", "110144.458000", "110208.650000", "110208.655000", "110208.659000", "110208.662000", "110208.666000", "110208.669000", "110208.672000", "110208.676000", "110208.679000", "110208.683000", "110208.686000", "110208.690000", "110208.693000", "110208.697000", "110208.700000", "110208.703000"],
