{
  "AcquisitionMatrixPE": 104,
  "AcquisitionNumber": 1,
  "AcquisitionTime": "10:50:20.655000",
  "BandwidthPerPixelPhaseEncode": 17.17,
  "BaseResolution": 104,
  "BodyPartExamined": "BRAIN",
  "CoilCombinationMethod": "Sum of Squares",
  "ConsistencyInfo": "N4_VE11C_LATEST_20160120",
  "ConversionSoftware": "dcm2niix",
  "ConversionSoftwareVersion": "v1.0.20211006",
  "DerivedVendorReportedEchoSpacing": 0.000560011,
  "DeviceSerialNumber": "167006",
  "DwellTime": 2.1e-06,
  "EchoTime": 0.037,
  "EchoTime1": 0.037,
  "EchoTime2": 0.001,
  "EchoTrainLength": 104,
  "EffectiveEchoSpacing": 0.000560011,
  "FlipAngle": 52,
  "HeudiconvVersion": "0.10.0",
  "ImageComments": "Unaliased MB4/PE3/LB",
  "ImageOrientationPatientDICOM": [0.99925, 0.00832831, 0.0378202, 0.0113366, 0.870913, -0.491306],
  "ImageOrientationText": "Tra>Cor(-29.5)>Sag(2.1)",
  "ImageType": [
    "ORIGINAL",
    "PRIMARY",
    "P",
    "MB",
    "ND",
    "MOSAIC",
    "PHASE"
],
  "ImagingFrequency": 123.259,
  "InPlanePhaseEncodingDirectionDICOM": "COL",
  "InstitutionAddress": "Chemin Queen-Mary 4565,Montreal,District,CA,H3W 1W5",
  "InstitutionName": "IUGM",
  "InstitutionalDepartmentName": "Department",
  "MRAcquisitionType": "2D",
  "MagneticFieldStrength": 3,
  "Manufacturer": "Siemens",
  "ManufacturersModelName": "Prisma_fit",
  "MatrixCoilMode": "SENSE",
  "Modality": "MR",
  "MultibandAccelerationFactor": 4,
  "PartialFourier": 1,
  "PatientPosition": "HFS",
  "PercentPhaseFOV": 100,
  "PercentSampling": 100,
  "PhaseEncodingDirection": "j",
  "PhaseEncodingSteps": 104,
  "PhaseResolution": 1,
  "PixelBandwidth": 2290,
  "ProcedureStepDescription": "games^mario",
  "ProtocolName": "func_task-mario_run-01",
  "PulseSequenceDetails": "%CustomerSeq%\\cmrr_mbep2d_bold",
  "ReceiveCoilActiveElements": "HC1-7;NC1,2",
  "ReceiveCoilName": "HeadNeck_64",
  "ReconMatrixPE": 104,
  "RepetitionTime": 1.49,
  "SAR": 0.0571006,
  "ScanOptions": "FS",
  "ScanningSequence": "EP",
  "SequenceName": "epfid2d1_104",
  "SequenceVariant": "SK\\SS",
  "SeriesDescription": "func_task-mario_run-01",
  "SeriesNumber": 11,
  "ShimSetting": [623, -7187, -8870, 216, 6, -124, 64, 3],
  "SliceThickness": 2,
  "SliceTiming": [0, 0.7825, 0.0975, 0.88, 0.195, 0.98, 0.2925, 1.0775, 0.39, 1.175, 0.49, 1.2725, 0.5875, 1.37, 0.685, 0, 0.7825, 0.0975, 0.88, 0.195, 0.98, 0.2925, 1.0775, 0.39, 1.175, 0.49, 1.2725, 0.5875, 1.37, 0.685, 0, 0.7825, 0.0975, 0.88, 0.195, 0.98, 0.2925, 1.0775, 0.39, 1.175, 0.49, 1.2725, 0.5875, 1.37, 0.685, 0, 0.7825, 0.0975, 0.88, 0.195, 0.98, 0.2925, 1.0775, 0.39, 1.175, 0.49, 1.2725, 0.5875, 1.37, 0.685],
  "SoftwareVersions": "syngo MR E11",
  "SpacingBetweenSlices": 2,
  "StationName": "MRC35049",
  "TaskName": "mario",
  "TotalReadoutTime": 0.0576811,
  "TxRefAmp": 289.257,
  "WipMemBlock": "df6e2cb7-d627-479d-b4ff-8ab4d984f715||Sequence: R016 ve11c/master r/e634e98; Dec 19 2017 11:00:25 by eja",
  "dcmmeta_affine": [
    [-1.9984997510910034, 0.022673169150948524, 0.07405977696180344, 104.39108276367188],
    [-0.016656626015901566, 1.7418261766433716, -0.9827329516410828, -51.51325607299805],
    [0.07564046233892441, 0.9826125502586365, 1.740330696105957, -93.09904479980469],
    [0.0, 0.0, 0.0, 1.0]
],
  "dcmmeta_reorient_transform": [
    [0.0, -1.0, 0.0, 103.0],
    [1.0, 0.0, 0.0, 0.0],
    [0.0, 0.0, 1.0, 0.0],
    [0.0, 0.0, 0.0, 1.0]
],
  "dcmmeta_shape": [104, 104, 60, 474],
  "dcmmeta_slice_dim": 2,
  "dcmmeta_version": 0.6,
  "global": {
    "const": {
      "AcquisitionMatrix": [104, 0, 0, 104],
      "AngioFlag": "N",
      "BitsAllocated": 16,
      "BitsStored": 16,
      "BodyPartExamined": "BRAIN",
      "Columns": 832,
      "EchoNumbers": 1,
      "EchoTime": 37.0,
      "EchoTrainLength": 104,
      "FlipAngle": 52.0,
      "HighBit": 15,
      "ImageOrientationPatient": [0.9992498533036, 0.00832831325952, 0.03782023097467, 0.01133658415732, 0.87091309413288, -0.4913062836231],
      "ImagePositionPatient": [-842.43334488251, -767.98258630204, 338.24789412502],
      "ImageType": [
        "ORIGINAL",
        "PRIMARY",
        "P",
        "MB",
        "ND",
        "MOSAIC"
],
      "ImagedNucleus": "1H",
      "ImagingFrequency": 123.258852,
      "InPlanePhaseEncodingDirection": "COL",
      "LargestImagePixelValue": 4095,
      "MRAcquisitionType": "2D",
      "MagneticFieldStrength": 3.0,
      "Manufacturer": "SIEMENS",
      "ManufacturerModelName": "Prisma_fit",
      "Modality": "MR",
      "NumberOfAverages": 1.0,
      "NumberOfPhaseEncodingSteps": 104,
      "PercentPhaseFieldOfView": 100.0,
      "PercentSampling": 100.0,
      "PerformedProcedureStepStartTime": "095830.568000",
      "PhotometricInterpretation": "MONOCHROME2",
      "PixelBandwidth": 2290.0,
      "PixelRepresentation": 0,
      "PixelSpacing": [2.0, 2.0],
      "ProtocolName": "func_task-mario_run-01",
      "RepetitionTime": 1490.0,
      "RescaleIntercept": -4096.0,
      "RescaleSlope": 2.0,
      "RescaleType": "US",
      "Rows": 832,
      "SAR": 0.05710061566599,
      "SamplesPerPixel": 1,
      "ScanOptions": "FS",
      "ScanningSequence": "EP",
      "SequenceName": "epfid2d1_104",
      "SequenceVariant": [
        "SK",
        "SS"
],
      "SeriesDescription": "func_task-mario_run-01",
      "SeriesNumber": 11,
      "SeriesTime": "105124.481000",
      "SliceLocation": -51.834088774309,
      "SliceThickness": 2.0,
      "SmallestImagePixelValue": 0,
      "SoftwareVersions": "syngo MR E11",
      "SpacingBetweenSlices": 1.9999999796313,
      "SpecificCharacterSet": "ISO_IR 100",
      "StudyID": "1",
      "StudyTime": "095830.510000",
      "TransmitCoilName": "Body",
      "VariableFlipAngleFlag": "N",
      "WindowCenterWidthExplanation": "Algo1",
      "dBdt": 0.0},
    "slices": {}
  },
  "time": {
    "samples": {
      "AcquisitionNumber": [1, 2, 3, 4, 5, 6, 7, 8, 9, 10, 11, 12, 13, 14, 15, 16, 17, 18, 19, 20, 21, 22, 23, 24, 25, 26, 27, 28, 29, 30, 31, 32, 33, 34, 35, 36, 37, 38, 39, 40, 41, 42, 43, 44, 45, 46, 47, 48, 49, 50, 51, 52, 53, 54, 55, 56, 57, 58, 59, 60, 61, 62, 63, 64, 65, 66, 67, 68, 69, 70, 71, 72, 73, 74, 75, 76, 77, 78, 79, 80, 81, 82, 83, 84, 85, 86, 87, 88, 89, 90, 91, 92, 93, 94, 95, 96, 97, 98, 99, 100, 101, 102, 103, 104, 105, 106, 107, 108, 109, 110, 111, 112, 113, 114, 115, 116, 117, 118, 119, 120, 121, 122, 123, 124, 125, 126, 127, 128, 129, 130, 131, 132, 133, 134, 135, 136, 137, 138, 139, 140, 141, 142, 143, 144, 145, 146, 147, 148, 149, 150, 151, 152, 153, 154, 155, 156, 157, 158, 159, 160, 161, 162, 163, 164, 165, 166, 167, 168, 169, 170, 171, 172, 173, 174, 175, 176, 177, 178, 179, 180, 181, 182, 183, 184, 185, 186, 187, 188, 189, 190, 191, 192, 193, 194, 195, 196, 197, 198, 199, 200, 201, 202, 203, 204, 205, 206, 207, 208, 209, 210, 211, 212, 213, 214, 215, 216, 217, 218, 219, 220, 221, 222, 223, 224, 225, 226, 227, 228, 229, 230, 231, 232, 233, 234, 235, 236, 237, 238, 239, 240, 241, 242, 243, 244, 245, 246, 247, 248, 249, 250, 251, 252, 253, 254, 255, 256, 257, 258, 259, 260, 261, 262, 263, 264, 265, 266, 267, 268, 269, 270, 271, 272, 273, 274, 275, 276, 277, 278, 279, 280, 281, 282, 283, 284, 285, 286, 287, 288, 289, 290, 291, 292, 293, 294, 295, 296, 297, 298, 299, 300, 301, 302, 303, 304, 305, 306, 307, 308, 309, 310, 311, 312, 313, 314, 315, 316, 317, 318, 319, 320, 321, 322, 323, 324, 325, 326, 327, 328, 329, 330, 331, 332, 333, 334, 335, 336, 337, 338, 339, 340, 341, 342, 343, 344, 345, 346, 347, 348, 349, 350, 351, 352, 353, 354, 355, 356, 357, 358, 359, 360, 361, 362, 363, 364, 365, 366, 367, 368, 369, 370, 371, 372, 373, 374, 375, 376, 377, 378, 379, 380, 381, 382, 383, 384, 385, 386, 387, 388, 389, 390, 391, 392, 393, 394, 395, 396, 397, 398, 399, 400, 401, 402, 403, 404, 405, 406, 407, 408, 409, 410, 411, 412, 413, 414, 415, 416, 417, 418, 419, 420, 421, 422, 423, 424, 425, 426, 427, 428, 429, 430, 431, 432, 433, 434, 435, 436, 437, 438, 439, 440, 441, 442, 443, 444, 445, 446, 447, 448, 449, 450, 451, 452, 453, 454, 455, 456, 457, 458, 459, 460, 461, 462, 463, 464, 465, 466, 467, 468, 469, 470, 471, 472, 473, 474],
      "AcquisitionTime": ["105020.655000", "105022.145000", "105023.635000", "105025.125000", "105026.615000", "105028.105000", "105029.595000", "105031.085000", "105032.575000", "105034.065000", "105035.555000", "105037.045000", "105038.535000", "105040.025000", "105041.515000", "105043.005000", "105044.495000", "105045.985000", "105047.475000", "105048.965000", "105050.455000", "105051.945000", "105053.435000", "105054.925000", "105056.415000", "105057.905000", "105059.395000", "105100.885000", "105102.375000", "105103.865000", "105105.355000", "105106.845000", "105108.335000", "105109.825000", "105111.315000", "105112.805000", "105114.295000", "105115.785000", "105117.275000", "105118.765000", "105120.255000", "105121.745000", "105123.235000", "105124.725000", "105126.215000", "105127.705000", "105129.195000", "105130.685000", "105132.175000", "105133.665000", "105135.155000", "105136.645000", "105138.135000", "105139.625000", "105141.115000", "105142.605000", "105144.095000", "105145.585000", "105147.075000", "105148.565000", "105150.055000", "105151.545000", "105153.035000", "105154.525000", "105156.015000", "105157.505000", "105158.995000", "105200.485000", "105201.975000", "105203.465000", "105204.955000", "105206.445000", "105207.935000", "105209.425000", "105210.915000", "105212.405000", "105213.895000", "105215.385000", "105216.875000", "105218.365000", "105219.855000", "105221.345000", "105222.835000", "105224.325000", "105225.815000", "105227.305000", "105228.795000", "105230.285000", "105231.775000", "105233.265000", "105234.755000", "105236.245000", "105237.735000", "105239.225000", "105240.715000", "105242.205000", "105243.695000", "105245.185000", "105246.675000", "105248.165000", "105249.655000", "105251.145000", "105252.635000", "105254.125000", "105255.615000", "105257.105000", "105258.595000", "105300.085000", "105301.575000", "105303.065000", "105304.555000", "105306.045000", "105307.535000", "105309.025000", "105310.515000", "105312.005000", "105313.495000", "105314.985000", "105316.475000", "105317.965000", "105319.455000", "105320.945000", "105322.435000", "105323.925000", "105325.415000", "105326.905000", "105328.395000", "105329.885000", "105331.375000", "105332.865000", "105334.355000", "105335.845000", "105337.335000", "105338.825000", "105340.315000", "105341.805000", "105343.295000", "105344.785000", "105346.275000", "105347.765000", "105349.255000", "105350.745000", "105352.235000", "105353.725000", "105355.215000", "105356.705000", "105358.195000", "105359.685000", "105401.175000", "105402.665000", "105404.155000", "105405.645000", "105407.135000", "105408.625000", "105410.115000", "105411.605000", "105413.095000", "105414.585000", "105416.075000", "105417.565000", "105419.055000", "105420.545000", "105422.035000", "105423.525000", "105425.015000", "105426.505000", "105427.995000", "105429.485000", "105430.975000", "105432.465000", "105433.955000", "105435.445000", "105436.935000", "105438.425000", "105439.915000", "105441.405000", "105442.895000", "105444.385000", "105445.875000", "105447.365000", "105448.855000", "105450.345000", "105451.835000", "105453.325000", "105454.815000", "105456.305000", "105457.795000", "105459.285000", "105500.775000", "105502.265000", "105503.755000", "105505.245000", "105506.735000", "105508.225000", "105509.715000", "105511.205000", "105512.695000", "105514.185000", "105515.675000", "105517.165000", "105518.655000", "105520.145000", "105521.635000", "105523.125000", "105524.615000", "105526.105000", "105527.595000", "105529.085000", "105530.575000", "105532.065000", "105533.555000", "105535.045000", "105536.535000", "105538.025000", "105539.515000", "105541.005000", "105542.495000", "105543.985000", "105545.475000", "105546.965000", "105548.455000", "105549.945000", "105551.435000", "105552.925000", "105554.415000", "105555.905000", "105557.395000", "105558.885000", "105600.375000", "105601.865000", "105603.355000", "105604.845000", "105606.335000", "105607.825000", "105609.315000", "105610.805000", "105612.295000", "105613.785000", "105615.275000", "105616.765000", "105618.255000", "105619.745000", "105621.235000", "105622.725000", "105624.215000", "105625.705000", "105627.195000", "105628.685000", "105630.175000", "105631.665000", "105633.155000", "105634.645000", "105636.135000", "105637.625000", "105639.115000", "105640.605000", "105642.095000", "105643.585000", "105645.075000", "105646.565000", "105648.055000", "105649.545000", "105651.035000", "105652.525000", "105654.015000", "105655.505000", "105656.995000", "105658.485000", "105659.975000", "105701.465000", "105702.955000", "105704.445000", "105705.935000", "105707.425000", "105708.915000", "105710.405000", "105711.895000", "105713.385000", "105714.875000", "105716.365000", "105717.855000", "105719.345000", "105720.835000", "105722.325000", "105723.815000", "105725.305000", "105726.795000", "105728.285000", "105729.775000", "105731.265000", "105732.755000", "105734.245000", "105735.735000", "105737.225000", "105738.715000", "105740.205000", "105741.695000", "105743.185000", "105744.675000", "105746.165000", "105747.655000", "105749.145000", "105750.635000", "105752.125000", "105753.615000", "105755.105000", "105756.595000", "105758.085000", "105759.575000", "105801.065000", "105802.555000", "105804.045000", "105805.535000", "105807.025000", "105808.515000", "105810.005000", "105811.495000", "105812.985000", "105814.475000", "105815.965000", "105817.455000", "105818.945000", "105820.435000", "105821.925000", "105823.415000", "105824.905000", "105826.395000", "105827.885000", "105829.375000", "105830.865000", "105832.355000", "105833.845000", "105835.335000", "105836.825000", "105838.315000", "105839.805000", "105841.295000", "105842.785000", "105844.275000", "105845.765000", "105847.255000", "105848.745000", "105850.235000", "105851.725000", "105853.215000", "105854.705000", "105856.195000", "105857.685000", "105859.175000", "105900.665000", "105902.155000", "105903.645000", "105905.135000", "105906.625000", "105908.115000", "105909.605000", "105911.095000", "105912.585000", "105914.075000", "105915.565000", "105917.055000", "105918.545000", "105920.035000", "105921.525000", "105923.015000", "105924.505000", "105925.995000", "105927.485000", "105928.975000", "105930.465000", "105931.955000", "105933.445000", "105934.935000", "105936.425000", "105937.915000", "105939.405000", "105940.895000", "105942.385000", "105943.875000", "105945.365000", "105946.855000", "105948.345000", "105949.835000", "105951.325000", "105952.815000", "105954.305000", "105955.795000", "105957.285000", "105958.775000", "110000.265000", "110001.755000", "110003.245000", "110004.735000", "110006.225000", "110007.715000", "110009.205000", "110010.695000", "110012.185000", "110013.675000", "110015.165000", "110016.655000", "110018.145000", "110019.635000", "110021.125000", "110022.615000", "110024.105000", "110025.595000", "110027.085000", "110028.575000", "110030.065000", "110031.555000", "110033.045000", "110034.535000", "110036.025000", "110037.515000", "110039.005000", "110040.495000", "110041.985000", "110043.475000", "110044.965000", "110046.455000", "110047.945000", "110049.435000", "110050.925000", "110052.415000", "110053.905000", "110055.395000", "110056.885000", "110058.375000", "110059.865000", "110101.355000", "110102.845000", "110104.335000", "110105.825000", "110107.315000", "110108.805000", "110110.295000", "110111.785000", "110113.275000", "110114.765000", "110116.255000", "110117.745000", "110119.235000", "110120.725000", "110122.215000", "110123.705000", "110125.195000", "110126.685000", "110128.175000", "110129.665000", "110131.155000", "110132.645000", "110134.135000", "110135.625000", "110137.115000", "110138.605000", "110140.095000", "110141.585000", "110143.075000", "110144.565000", "110146.055000", "110147.545000", "110149.035000", "110150.525000", "110152.015000", "110153.505000", "110154.995000", "110156.485000", "110157.975000", "110159.465000", "110200.955000", "110202.445000", "110203.935000", "110205.425000"],
      "ContentTime": ["105124.483000", "105124.486000", "105124.489000", "105124.491000", "105124.494000", "105124.496000", "105124.499000", "105124.501000", "105124.504000", "105144.490000", "105144.493000", "105144.495000", "105144.498000", "105144.507000", "105144.509000", "105144.512000", "105144.514000", "105144.517000", "105144.519000", "105144.522000", "105144.524000", "105144.527000", "105144.529000", "105144.532000", "105144.535000", "105144.537000", "105144.540000", "105144.542000", "105144.545000", "105224.568000", "105224.571000", "105224.574000", "105224.576000", "105224.579000", "105224.590000", "105224.593000", "105224.596000", "105224.598000", "105224.601000", "105224.603000", "105224.606000", "105224.608000", "105224.611000", "105224.614000", "105224.616000", "105224.619000", "105224.621000", "105224.624000", "105224.627000", "105224.629000", "105224.632000", "105224.634000", "105224.637000", "105224.639000", "105224.642000", "105224.645000", "105224.647000", "105224.650000", "105224.652000", "105224.660000", "105224.662000", "105224.665000", "105224.668000", "105224.670000", "105224.673000", "105224.675000", "105224.678000", "105224.680000", "105244.493000", "105244.495000", "105244.498000", "105244.500000", "105244.503000", "105244.510000", "105244.513000", "105244.515000", "105244.518000", "105244.520000", "105244.523000", "105244.526000", "105244.528000", "105244.535000", "105244.538000", "105244.540000", "105244.543000", "105244.545000", "105244.548000", "105244.550000", "105244.553000", "105304.486000", "105304.489000", "105304.491000", "105304.494000", "105304.496000", "105304.499000", "105304.502000", "105304.504000", "105304.507000", "105304.509000", "105304.512000", "105304.514000", "105304.517000", "105304.520000", "105304.522000", "105304.525000", "105304.527000", "105304.530000", "105304.532000", "105304.535000", "105344.517000", "105344.520000", "105344.523000", "105344.525000", "105344.528000", "105344.544000", "105344.547000", "105344.549000", "105344.552000", "105344.554000", "105344.557000", "105344.559000", "105344.562000", "105344.565000", "105344.567000", "105344.570000", "105344.572000", "105344.575000", "105344.578000", "105344.580000", "105344.583000", "105344.585000", "105344.588000", "105344.591000", "105344.593000", "105344.596000", "105344.598000", "105424.519000", "105424.522000", "105424.525000", "105424.527000", "105424.530000", "105424.532000", "105424.535000", "105424.537000", "105424.540000", "105424.543000", "105424.545000", "105424.548000", "105424.551000", "105424.553000", "105424.556000", "105424.558000", "105424.561000", "105424.563000", "105424.566000", "105424.569000", "105424.571000", "105424.574000", "105424.577000", "105424.579000", "105424.582000", "105424.584000", "105504.515000", "105504.518000", "105504.521000", "105504.523000", "105504.526000", "105504.528000", "105504.531000", "105504.533000", "105504.536000", "105504.539000", "105504.541000", "105504.544000", "105504.546000", "105504.549000", "105504.551000", "105504.554000", "105504.557000", "105504.559000", "105504.562000", "105504.564000", "105504.567000", "105504.569000", "105504.572000", "105504.575000", "105504.577000", "105504.580000", "105504.582000", "105544.524000", "105544.527000", "105544.529000", "105544.532000", "105544.534000", "105544.537000", "105544.540000", "105544.542000", "105544.545000", "105544.547000", "105544.550000", "105544.553000", "105544.555000", "105544.558000", "105544.560000", "105544.563000", "105544.566000", "105544.568000", "105544.571000", "105544.573000", "105544.576000", "105544.579000", "105544.581000", "105544.584000", "105544.586000", "105544.589000", "105544.591000", "105624.931000", "105624.934000", "105624.936000", "105624.939000", "105624.941000", "105624.944000", "105624.946000", "105624.949000", "105624.951000", "105624.954000", "105624.957000", "105624.959000", "105624.962000", "105624.964000", "105624.967000", "105624.969000", "105624.972000", "105624.975000", "105624.977000", "105624.980000", "105624.982000", "105624.985000", "105624.987000", "105624.990000", "105624.992000", "105624.995000", "105624.998000", "105704.517000", "105704.519000", "105704.522000", "105704.525000", "105704.527000", "105704.530000", "105704.532000", "105704.535000", "105704.537000", "105704.540000", "105704.542000", "105704.545000", "105704.548000", "105704.550000", "105704.553000", "105704.555000", "105704.558000", "105704.560000", "105704.563000", "105704.566000", "105704.568000", "105704.571000", "105704.573000", "105704.576000", "105704.578000", "105704.581000", "105704.584000", "105744.517000", "105744.520000", "105744.523000", "105744.526000", "105744.528000", "105744.531000", "105744.533000", "105744.536000", "105744.538000", "105744.541000", "105744.544000", "105744.546000", "105744.549000", "105744.552000", "105744.554000", "105744.557000", "105744.560000", "105744.562000", "105744.565000", "105744.567000", "105744.570000", "105744.573000", "105744.575000", "105744.578000", "105744.581000", "105744.583000", "105744.586000", "105824.532000", "105824.535000", "105824.544000", "105824.547000", "105824.549000", "105824.552000", "105824.555000", "105824.557000", "105824.560000", "105824.562000", "105824.565000", "105824.568000", "105824.570000", "105824.573000", "105824.576000", "105824.578000", "105824.581000", "105824.583000", "105824.586000", "105824.589000", "105824.591000", "105824.594000", "105824.596000", "105824.599000", "105824.602000", "105824.604000", "105904.523000", "105904.526000", "105904.528000", "105904.532000", "105904.534000", "105904.537000", "105904.539000", "105904.542000", "105904.544000", "105904.547000", "105904.550000", "105904.552000", "105904.555000", "105904.557000", "105904.560000", "105904.562000", "105904.565000", "105904.567000", "105904.570000", "105904.573000", "105904.575000", "105904.578000", "105904.580000", "105904.583000", "105904.585000", "105904.588000", "105904.591000", "105944.514000", "105944.517000", "105944.519000", "105944.522000", "105944.524000", "105944.527000", "105944.530000", "105944.532000", "105944.535000", "105944.537000", "105944.541000", "105944.544000", "105944.546000", "105944.549000", "105944.552000", "105944.554000", "105944.557000", "105944.559000", "105944.562000", "105944.564000", "105944.567000", "105944.570000", "105944.572000", "105944.575000", "105944.578000", "105944.580000", "105944.583000", "110024.500000", "110024.503000", "110024.505000", "110024.508000", "110024.510000", "110024.513000", "110024.516000", "110024.518000", "110024.521000", "110024.524000", "110024.526000", "110024.529000", "110024.531000", "110024.534000", "110024.537000", "110024.539000", "110024.542000", "110024.545000", "110024.547000", "110024.550000", "110024.552000", "110024.555000", "110024.558000", "110024.560000", "110024.563000", "110024.566000", "110024.568000", "110104.508000", "110104.511000", "110104.513000", "110104.516000", "110104.519000", "110104.521000", "110104.524000", "110104.527000", "110104.539000", "110104.542000", "110104.544000", "110104.547000", "110104.550000", "110104.552000", "110104.555000", "110104.558000", "110104.560000", "110104.563000", "110104.565000", "110104.568000", "110104.571000", "110104.573000", "110104.576000", "110104.578000", "110104.581000", "110104.584000", "110104.586000", "110144.511000", "110144.514000", "110144.516000", "110144.519000", "110144.521000", "110144.524000", "110144.527000", "110144.529000", "110144.532000", "110144.534000", "110144.537000", "110144.539000", "110144.542000", "110144.545000", "110144.547000", "110144.550000", "110144.552000", "110144.555000", "110144.558000", "110144.569000", "110144.572000", "110144.575000", "110144.577000", "110144.580000", "110144.582000", "110144.585000", "110144.588000", "110208.739000", "110208.742000", "110208.744000", "110208.747000", "110208.750000", "110208.752000", "110208.755000", "110208.757000", "110208.760000", "110208.763000", "110208.765000", "110208.768000", "110208.770000", "110208.773000", "110208.776000", "110208.778000"],
