{
  "AcquisitionMatrixPE": 104,
  "AcquisitionNumber": 1,
  "AcquisitionTime": "11:03:28.130000",
  "BandwidthPerPixelPhaseEncode": 17.17,
  "BaseResolution": 104,
  "BodyPartExamined": "BRAIN",
  "CoilCombinationMethod": "Sum of Squares",
  "ConsistencyInfo": "N4_VE11C_LATEST_20160120",
  "ConversionSoftware": "dcm2niix",
  "ConversionSoftwareVersion": "v1.0.20211006",
  "DerivedVendorReportedEchoSpacing": 0.000560011,
  "DeviceSerialNumber": "167006",
  "DwellTime": 2.1e-06,
  "EchoTime": 0.037,
  "EchoTime1": 0.037,
  "EchoTime2": 0.001,
  "EchoTrainLength": 104,
  "EffectiveEchoSpacing": 0.000560011,
  "FlipAngle": 52,
  "HeudiconvVersion": "0.10.0",
  "ImageComments": "Unaliased MB4/PE3/LB",
  "ImageOrientationPatientDICOM": [0.99925, 0.00832831, 0.0378202, 0.0113366, 0.870913, -0.491306],
  "ImageOrientationText": "Tra>Cor(-29.5)>Sag(2.1)",
  "ImageType": [
    "ORIGINAL",
    "PRIMARY",
    "P",
    "MB",
    "ND",
    "MOSAIC",
    "PHASE"
],
  "ImagingFrequency": 123.259,
  "InPlanePhaseEncodingDirectionDICOM": "COL",
  "InstitutionAddress": "Chemin Queen-Mary 4565,Montreal,District,CA,H3W 1W5",
  "InstitutionName": "IUGM",
  "InstitutionalDepartmentName": "Department",
  "MRAcquisitionType": "2D",
  "MagneticFieldStrength": 3,
  "Manufacturer": "Siemens",
  "ManufacturersModelName": "Prisma_fit",
  "MatrixCoilMode": "SENSE",
  "Modality": "MR",
  "MultibandAccelerationFactor": 4,
  "PartialFourier": 1,
  "PatientPosition": "HFS",
  "PercentPhaseFOV": 100,
  "PercentSampling": 100,
  "PhaseEncodingDirection": "j",
  "PhaseEncodingSteps": 104,
  "PhaseResolution": 1,
  "PixelBandwidth": 2290,
  "ProcedureStepDescription": "games^mario",
  "ProtocolName": "func_task-mario_run-02",
  "PulseSequenceDetails": "%CustomerSeq%\\cmrr_mbep2d_bold",
  "ReceiveCoilActiveElements": "HC1-7;NC1,2",
  "ReceiveCoilName": "HeadNeck_64",
  "ReconMatrixPE": 104,
  "RepetitionTime": 1.49,
  "SAR": 0.0571006,
  "ScanOptions": "FS",
  "ScanningSequence": "EP",
  "SequenceName": "epfid2d1_104",
  "SequenceVariant": "SK\\SS",
  "SeriesDescription": "func_task-mario_run-02",
  "SeriesNumber": 14,
  "ShimSetting": [623, -7187, -8870, 216, 6, -124, 64, 3],
  "SliceThickness": 2,
  "SliceTiming": [0, 0.785, 0.0975, 0.8825, 0.1975, 0.98, 0.295, 1.0775, 0.3925, 1.1775, 0.49, 1.275, 0.5875, 1.3725, 0.6875, 0, 0.785, 0.0975, 0.8825, 0.1975, 0.98, 0.295, 1.0775, 0.3925, 1.1775, 0.49, 1.275, 0.5875, 1.3725, 0.6875, 0, 0.785, 0.0975, 0.8825, 0.1975, 0.98, 0.295, 1.0775, 0.3925, 1.1775, 0.49, 1.275, 0.5875, 1.3725, 0.6875, 0, 0.785, 0.0975, 0.8825, 0.1975, 0.98, 0.295, 1.0775, 0.3925, 1.1775, 0.49, 1.275, 0.5875, 1.3725, 0.6875],
  "SoftwareVersions": "syngo MR E11",
  "SpacingBetweenSlices": 2,
  "StationName": "MRC35049",
  "TaskName": "mario",
  "TotalReadoutTime": 0.0576811,
  "TxRefAmp": 289.257,
  "WipMemBlock": "5d8c5e02-0ff0-4ba7-a93c-ff1f9fdfa5ac||Sequence: R016 ve11c/master r/e634e98; Dec 19 2017 11:00:25 by eja",
  "dcmmeta_affine": [
    [-1.9984997510910034, 0.022673169150948524, 0.07405977696180344, 104.39108276367188],
    [-0.016656626015901566, 1.7418261766433716, -0.9827329516410828, -51.51325607299805],
    [0.07564046233892441, 0.9826125502586365, 1.740330696105957, -93.09904479980469],
    [0.0, 0.0, 0.0, 1.0]
],
  "dcmmeta_reorient_transform": [
    [0.0, -1.0, 0.0, 103.0],
    [1.0, 0.0, 0.0, 0.0],
    [0.0, 0.0, 1.0, 0.0],
    [0.0, 0.0, 0.0, 1.0]
],
  "dcmmeta_shape": [104, 104, 60, 453],
  "dcmmeta_slice_dim": 2,
  "dcmmeta_version": 0.6,
  "global": {
    "const": {
      "AcquisitionMatrix": [104, 0, 0, 104],
      "AngioFlag": "N",
      "BitsAllocated": 16,
      "BitsStored": 16,
      "BodyPartExamined": "BRAIN",
      "Columns": 832,
      "EchoNumbers": 1,
      "EchoTime": 37.0,
      "EchoTrainLength": 104,
      "FlipAngle": 52.0,
      "HighBit": 15,
      "ImageOrientationPatient": [0.9992498533036, 0.00832831325952, 0.03782023097467, 0.01133658415732, 0.87091309413288, -0.4913062836231],
      "ImagePositionPatient": [-842.43334488251, -767.98258630204, 338.24789412502],
      "ImageType": [
        "ORIGINAL",
        "PRIMARY",
        "P",
        "MB",
        "ND",
        "MOSAIC"
],
      "ImagedNucleus": "1H",
      "ImagingFrequency": 123.258861,
      "InPlanePhaseEncodingDirection": "COL",
      "LargestImagePixelValue": 4095,
      "MRAcquisitionType": "2D",
      "MagneticFieldStrength": 3.0,
      "Manufacturer": "SIEMENS",
      "ManufacturerModelName": "Prisma_fit",
      "Modality": "MR",
      "NumberOfAverages": 1.0,
      "NumberOfPhaseEncodingSteps": 104,
      "PercentPhaseFieldOfView": 100.0,
      "PercentSampling": 100.0,
      "PerformedProcedureStepStartTime": "095830.568000",
      "PhotometricInterpretation": "MONOCHROME2",
      "PixelBandwidth": 2290.0,
      "PixelRepresentation": 0,
      "PixelSpacing": [2.0, 2.0],
      "ProtocolName": "func_task-mario_run-02",
      "RepetitionTime": 1490.0,
      "RescaleIntercept": -4096.0,
      "RescaleSlope": 2.0,
      "RescaleType": "US",
      "Rows": 832,
      "SAR": 0.05710061566599,
      "SamplesPerPixel": 1,
      "ScanOptions": "FS",
      "ScanningSequence": "EP",
      "SequenceName": "epfid2d1_104",
      "SequenceVariant": [
        "SK",
        "SS"
],
      "SeriesDescription": "func_task-mario_run-02",
      "SeriesNumber": 14,
      "SeriesTime": "110453.308000",
      "SliceLocation": -51.834088774309,
      "SliceThickness": 2.0,
      "SmallestImagePixelValue": 0,
      "SoftwareVersions": "syngo MR E11",
      "SpacingBetweenSlices": 1.9999999796313,
      "SpecificCharacterSet": "ISO_IR 100",
      "StudyID": "1",
      "StudyTime": "095830.510000",
      "TransmitCoilName": "Body",
      "VariableFlipAngleFlag": "N",
      "WindowCenterWidthExplanation": "Algo1",
      "dBdt": 0.0},
    "slices": {}
  },
  "time": {
    "samples": {
      "AcquisitionNumber": [1, 2, 3, 4, 5, 6, 7, 8, 9, 10, 11, 12, 13, 14, 15, 16, 17, 18, 19, 20, 21, 22, 23, 24, 25, 26, 27, 28, 29, 30, 31, 32, 33, 34, 35, 36, 37, 38, 39, 40, 41, 42, 43, 44, 45, 46, 47, 48, 49, 50, 51, 52, 53, 54, 55, 56, 57, 58, 59, 60, 61, 62, 63, 64, 65, 66, 67, 68, 69, 70, 71, 72, 73, 74, 75, 76, 77, 78, 79, 80, 81, 82, 83, 84, 85, 86, 87, 88, 89, 90, 91, 92, 93, 94, 95, 96, 97, 98, 99, 100, 101, 102, 103, 104, 105, 106, 107, 108, 109, 110, 111, 112, 113, 114, 115, 116, 117, 118, 119, 120, 121, 122, 123, 124, 125, 126, 127, 128, 129, 130, 131, 132, 133, 134, 135, 136, 137, 138, 139, 140, 141, 142, 143, 144, 145, 146, 147, 148, 149, 150, 151, 152, 153, 154, 155, 156, 157, 158, 159, 160, 161, 162, 163, 164, 165, 166, 167, 168, 169, 170, 171, 172, 173, 174, 175, 176, 177, 178, 179, 180, 181, 182, 183, 184, 185, 186, 187, 188, 189, 190, 191, 192, 193, 194, 195, 196, 197, 198, 199, 200, 201, 202, 203, 204, 205, 206, 207, 208, 209, 210, 211, 212, 213, 214, 215, 216, 217, 218, 219, 220, 221, 222, 223, 224, 225, 226, 227, 228, 229, 230, 231, 232, 233, 234, 235, 236, 237, 238, 239, 240, 241, 242, 243, 244, 245, 246, 247, 248, 249, 250, 251, 252, 253, 254, 255, 256, 257, 258, 259, 260, 261, 262, 263, 264, 265, 266, 267, 268, 269, 270, 271, 272, 273, 274, 275, 276, 277, 278, 279, 280, 281, 282, 283, 284, 285, 286, 287, 288, 289, 290, 291, 292, 293, 294, 295, 296, 297, 298, 299, 300, 301, 302, 303, 304, 305, 306, 307, 308, 309, 310, 311, 312, 313, 314, 315, 316, 317, 318, 319, 320, 321, 322, 323, 324, 325, 326, 327, 328, 329, 330, 331, 332, 333, 334, 335, 336, 337, 338, 339, 340, 341, 342, 343, 344, 345, 346, 347, 348, 349, 350, 351, 352, 353, 354, 355, 356, 357, 358, 359, 360, 361, 362, 363, 364, 365, 366, 367, 368, 369, 370, 371, 372, 373, 374, 375, 376, 377, 378, 379, 380, 381, 382, 383, 384, 385, 386, 387, 388, 389, 390, 391, 392, 393, 394, 395, 396, 397, 398, 399, 400, 401, 402, 403, 404, 405, 406, 407, 408, 409, 410, 411, 412, 413, 414, 415, 416, 417, 418, 419, 420, 421, 422, 423, 424, 425, 426, 427, 428, 429, 430, 431, 432, 433, 434, 435, 436, 437, 438, 439, 440, 441, 442, 443, 444, 445, 446, 447, 448, 449, 450, 451, 452, 453],
      "AcquisitionTime": ["110328.130000", "110329.620000", "110331.110000", "110332.600000", "110334.090000", "110335.580000", "110337.070000", "110338.560000", "110340.050000", "110341.540000", "110343.030000", "110344.520000", "110346.010000", "110347.500000", "110348.990000", "110350.480000", "110351.970000", "110353.460000", "110354.950000", "110356.440000", "110357.930000", "110359.420000", "110400.910000", "110402.400000", "110403.890000", "110405.380000", "110406.870000", "110408.360000", "110409.850000", "110411.340000", "110412.830000", "110414.320000", "110415.810000", "110417.300000", "110418.790000", "110420.280000", "110421.770000", "110423.260000", "110424.750000", "110426.240000", "110427.730000", "110429.220000", "110430.710000", "110432.200000", "110433.690000", "110435.180000", "110436.670000", "110438.160000", "110439.650000", "110441.140000", "110442.630000", "110444.120000", "110445.610000", "110447.100000", "110448.590000", "110450.080000", "110451.570000", "110453.060000", "110454.550000", "110456.040000", "110457.530000", "110459.020000", "110500.510000", "110502.000000", "110503.490000", "110504.980000", "110506.470000", "110507.960000", "110509.450000", "110510.940000", "110512.430000", "110513.920000", "110515.410000", "110516.900000", "110518.390000", "110519.880000", "110521.370000", "110522.860000", "110524.350000", "110525.840000", "110527.330000", "110528.820000", "110530.310000", "110531.800000", "110533.290000", "110534.780000", "110536.270000", "110537.760000", "110539.250000", "110540.740000", "110542.230000", "110543.720000", "110545.210000", "110546.700000", "110548.190000", "110549.680000", "110551.170000", "110552.660000", "110554.150000", "110555.640000", "110557.130000", "110558.620000", "110600.110000", "110601.600000", "110603.090000", "110604.580000", "110606.070000", "110607.560000", "110609.050000", "110610.540000", "110612.030000", "110613.520000", "110615.010000", "110616.500000", "110617.990000", "110619.480000", "110620.970000", "110622.460000", "110623.950000", "110625.440000", "110626.930000", "110628.420000", "110629.910000", "110631.400000", "110632.890000", "110634.380000", "110635.870000", "110637.360000", "110638.850000", "110640.340000", "110641.830000", "110643.320000", "110644.810000", "110646.300000", "110647.790000", "110649.280000", "110650.770000", "110652.260000", "110653.750000", "110655.240000", "110656.730000", "110658.220000", "110659.710000", "110701.200000", "110702.690000", "110704.180000", "110705.670000", "110707.160000", "110708.650000", "110710.140000", "110711.630000", "110713.120000", "110714.610000", "110716.100000", "110717.590000", "110719.080000", "110720.570000", "110722.060000", "110723.550000", "110725.040000", "110726.530000", "110728.020000", "110729.510000", "110731.000000", "110732.490000", "110733.980000", "110735.470000", "110736.960000", "110738.450000", "110739.940000", "110741.430000", "110742.920000", "110744.410000", "110745.900000", "110747.390000", "110748.880000", "110750.370000", "110751.860000", "110753.350000", "110754.840000", "110756.330000", "110757.820000", "110759.310000", "110800.800000", "110802.290000", "110803.780000", "110805.270000", "110806.760000", "110808.250000", "110809.740000", "110811.230000", "110812.720000", "110814.210000", "110815.700000", "110817.190000", "110818.680000", "110820.170000", "110821.660000", "110823.150000", "110824.640000", "110826.130000", "110827.620000", "110829.110000", "110830.600000", "110832.090000", "110833.580000", "110835.070000", "110836.560000", "110838.050000", "110839.540000", "110841.030000", "110842.520000", "110844.010000", "110845.500000", "110846.990000", "110848.480000", "110849.970000", "110851.460000", "110852.950000", "110854.440000", "110855.930000", "110857.420000", "110858.910000", "110900.400000", "110901.890000", "110903.380000", "110904.870000", "110906.360000", "110907.850000", "110909.340000", "110910.830000", "110912.320000", "110913.810000", "110915.300000", "110916.790000", "110918.280000", "110919.770000", "110921.260000", "110922.750000", "110924.240000", "110925.730000", "110927.220000", "110928.710000", "110930.200000", "110931.690000", "110933.180000", "110934.670000", "110936.160000", "110937.650000", "110939.140000", "110940.630000", "110942.120000", "110943.610000", "110945.100000", "110946.590000", "110948.080000", "110949.570000", "110951.060000", "110952.550000", "110954.040000", "110955.530000", "110957.020000", "110958.510000", "111000.000000", "111001.490000", "111002.980000", "111004.470000", "111005.960000", "111007.450000", "111008.940000", "111010.430000", "111011.920000", "111013.410000", "111014.900000", "111016.390000", "111017.880000", "111019.370000", "111020.860000", "111022.350000", "111023.840000", "111025.330000", "111026.820000", "111028.310000", "111029.800000", "111031.290000", "111032.780000", "111034.270000", "111035.760000", "111037.250000", "111038.740000", "111040.230000", "111041.720000", "111043.210000", "111044.700000", "111046.190000", "111047.680000", "111049.170000", "111050.660000", "111052.150000", "111053.640000", "111055.130000", "111056.620000", "111058.110000", "111059.600000", "111101.090000", "111102.580000", "111104.070000", "111105.560000", "111107.050000", "111108.540000", "111110.030000", "111111.520000", "111113.010000", "111114.500000", "111115.990000", "111117.480000", "111118.970000", "111120.460000", "111121.950000", "111123.440000", "111124.930000", "111126.420000", "111127.910000", "111129.400000", "111130.890000", "111132.380000", "111133.870000", "111135.360000", "111136.850000", "111138.340000", "111139.830000", "111141.320000", "111142.810000", "111144.300000", "111145.790000", "111147.280000", "111148.770000", "111150.260000", "111151.750000", "111153.240000", "111154.730000", "111156.220000", "111157.710000", "111159.200000", "111200.690000", "111202.180000", "111203.670000", "111205.160000", "111206.650000", "111208.140000", "111209.630000", "111211.120000", "111212.610000", "111214.100000", "111215.590000", "111217.080000", "111218.570000", "111220.060000", "111221.550000", "111223.040000", "111224.530000", "111226.020000", "111227.510000", "111229.000000", "111230.490000", "111231.980000", "111233.470000", "111234.960000", "111236.450000", "111237.940000", "111239.430000", "111240.920000", "111242.410000", "111243.900000", "111245.390000", "111246.880000", "111248.370000", "111249.860000", "111251.350000", "111252.840000", "111254.330000", "111255.820000", "111257.310000", "111258.800000", "111300.290000", "111301.780000", "111303.270000", "111304.760000", "111306.250000", "111307.740000", "111309.230000", "111310.720000", "111312.210000", "111313.700000", "111315.190000", "111316.680000", "111318.170000", "111319.660000", "111321.150000", "111322.640000", "111324.130000", "111325.620000", "111327.110000", "111328.600000", "111330.090000", "111331.580000", "111333.070000", "111334.560000", "111336.050000", "111337.540000", "111339.030000", "111340.520000", "111342.010000", "111343.500000", "111344.990000", "111346.480000", "111347.970000", "111349.460000", "111350.950000", "111352.440000", "111353.930000", "111355.420000", "111356.910000", "111358.400000", "111359.890000", "111401.380000", "111402.870000", "111404.360000", "111405.850000", "111407.340000", "111408.830000", "111410.320000", "111411.810000", "111413.300000", "111414.790000", "111416.280000", "111417.770000", "111419.260000", "111420.750000", "111422.240000", "111423.730000", "111425.220000", "111426.710000", "111428.200000", "111429.690000", "111431.180000", "111432.670000", "111434.160000", "111435.650000", "111437.140000", "111438.630000", "111440.120000", "111441.610000"],
      "ContentTime": ["110453.310000", "110453.313000", "110453.315000", "110453.320000", "110453.323000", "110453.325000", "110453.328000", "110453.330000", "110453.333000", "110453.336000", "110453.338000", "110453.341000", "110453.343000", "110453.346000", "110453.349000", "110453.351000", "110453.354000", "110453.356000", "110453.359000", "110453.361000", "110453.364000", "110453.367000", "110453.369000", "110453.372000", "110453.374000", "110453.377000", "110453.379000", "110453.382000", "110453.385000", "110453.387000", "110453.390000", "110453.392000", "110453.395000", "110513.244000", "110513.247000", "110513.249000", "110513.252000", "110513.255000", "110513.257000", "110513.260000", "110513.262000", "110513.265000", "110513.267000", "110513.270000", "110513.272000", "110513.275000", "110513.277000", "110513.280000", "110513.282000", "110513.285000", "110513.287000", "110513.290000", "110513.293000", "110533.226000", "110533.229000", "110533.231000", "110533.234000", "110533.237000", "110533.239000", "110533.242000", "110533.244000", "110533.247000", "110533.250000", "110533.252000", "110533.255000", "110533.258000", "110533.260000", "110533.263000", "110533.266000", "110533.268000", "110533.271000", "110533.273000", "110533.276000", "110553.213000", "110553.216000", "110553.219000", "110553.222000", "110553.224000", "110553.227000", "110553.229000", "110553.232000", "110553.234000", "110553.237000", "110553.240000", "110553.242000", "110553.245000", "110553.247000", "110553.250000", "110553.252000", "110553.255000", "110553.257000", "110553.260000", "110553.263000", "110633.263000", "110633.265000", "110633.268000", "110633.270000", "110633.273000", "110633.276000", "110633.278000", "110633.281000", "110633.283000", "110633.286000", "110633.289000", "110633.292000", "110633.299000", "110633.301000", "110633.304000", "110633.306000", "110633.309000", "110633.312000", "110633.314000", "110633.317000", "110633.320000", "110633.322000", "110633.325000", "110633.327000", "110633.330000", "110633.332000", "110633.335000", "110633.338000", "110633.340000", "110633.343000", "110713.258000", "110713.261000", "110713.264000", "110713.267000", "110713.269000", "110713.272000", "110713.274000", "110713.277000", "110713.280000", "110713.282000", "110713.285000", "110713.287000", "110713.290000", "110713.293000", "110713.295000", "110713.298000", "110713.301000", "110713.303000", "110713.306000", "110713.308000", "110713.311000", "110713.313000", "110713.316000", "110713.319000", "110713.321000", "110713.324000", "110713.326000", "110753.694000", "110753.697000", "110753.699000", "110753.702000", "110753.705000", "110753.707000", "110753.710000", "110753.712000", "110753.715000", "110753.717000", "110753.720000", "110753.722000", "110753.725000", "110753.728000", "110753.730000", "110753.733000", "110753.735000", "110753.738000", "110753.740000", "110753.743000", "110753.745000", "110753.749000", "110753.752000", "110753.754000", "110753.757000", "110753.759000", "110753.762000", "110833.256000", "110833.259000", "110833.262000", "110833.264000", "110833.267000", "110833.270000", "110833.272000", "110833.275000", "110833.277000", "110833.280000", "110833.282000", "110833.285000", "110833.287000", "110833.290000", "110833.293000", "110833.295000", "110833.298000", "110833.300000", "110833.303000", "110833.305000", "110833.308000", "110833.310000", "110833.313000", "110833.316000", "110833.318000", "110833.321000", "110833.323000", "110913.259000", "110913.262000", "110913.265000", "110913.267000", "110913.270000", "110913.273000", "110913.275000", "110913.278000", "110913.280000", "110913.283000", "110913.286000", "110913.288000", "110913.291000", "110913.293000", "110913.296000", "110913.298000", "110913.301000", "110913.304000", "110913.306000", "110913.309000", "110913.311000", "110913.314000", "110913.317000", "110913.319000", "110913.322000", "110913.324000", "110913.327000", "110953.249000", "110953.252000", "110953.254000", "110953.266000", "110953.268000", "110953.271000", "110953.274000", "110953.276000", "110953.279000", "110953.281000", "110953.284000", "110953.287000", "110953.289000", "110953.292000", "110953.294000", "110953.297000", "110953.300000", "110953.302000", "110953.305000", "110953.307000", "110953.310000", "110953.313000", "110953.315000", "110953.318000", "110953.320000", "110953.323000", "110953.326000", "111013.196000", "111013.198000", "111013.201000", "111013.204000", "111013.206000", "111013.209000", "111013.212000", "111013.214000", "111013.217000", "111013.219000", "111013.222000", "111013.225000", "111013.227000", "111053.255000", "111053.258000", "111053.261000", "111053.263000", "111053.266000", "111053.268000", "111053.271000", "111053.273000", "111053.276000", "111053.278000", "111053.281000", "111053.284000", "111053.286000", "111053.289000", "111053.291000", "111053.294000", "111053.296000", "111053.299000", "111053.301000", "111053.304000", "111053.307000", "111053.309000", "111053.312000", "111053.314000", "111053.317000", "111053.319000", "111053.322000", "111133.258000", "111133.261000", "111133.264000", "111133.266000", "111133.269000", "111133.272000", "111133.274000", "111133.277000", "111133.279000", "111133.282000", "111133.285000", "111133.287000", "111133.290000", "111133.292000", "111133.295000", "111133.298000", "111133.300000", "111133.303000", "111133.305000", "111133.308000", "111133.310000", "111133.313000", "111133.316000", "111133.319000", "111133.321000", "111133.324000", "111133.326000", "111213.266000", "111213.269000", "111213.272000", "111213.274000", "111213.277000", "111213.280000", "111213.282000", "111213.285000", "111213.287000", "111213.290000", "111213.293000", "111213.295000", "111213.298000", "111213.300000", "111213.303000", "111213.305000", "111213.308000", "111213.310000", "111213.313000", "111213.315000", "111213.318000", "111213.320000", "111213.323000", "111213.326000", "111213.328000", "111213.331000", "111253.252000", "111253.255000", "111253.257000", "111253.260000", "111253.263000", "111253.265000", "111253.268000", "111253.271000", "111253.273000", "111253.276000", "111253.278000", "111253.281000", "111253.283000", "111253.286000", "111253.289000", "111253.291000", "111253.294000", "111253.297000", "111253.299000", "111253.302000", "111253.305000", "111253.307000", "111253.310000", "111253.312000", "111253.315000", "111253.318000", "111253.320000", "111333.272000", "111333.275000", "111333.278000", "111333.280000", "111333.283000", "111333.286000", "111333.288000", "111333.291000", "111333.293000", "111333.296000", "111333.299000", "111333.301000", "111333.304000", "111333.307000", "111333.309000", "111333.312000", "111333.314000", "111333.317000", "111333.320000", "111333.322000", "111333.325000", "111333.327000", "111333.330000", "111333.332000", "111333.335000", "111333.338000", "111333.340000", "111413.258000", "111413.261000", "111413.264000", "111413.266000", "111413.269000", "111413.271000", "111413.274000", "111413.276000", "111413.279000", "111413.281000", "111413.284000", "111413.295000", "111413.298000", "111413.300000", "111413.303000", "111413.306000", "111413.308000", "111413.311000", "111413.314000", "111413.316000", "111413.319000", "111413.321000", "111413.324000", "111413.327000", "111413.329000", "111413.332000", "111413.334000", "111444.294000", "111444.297000", "111444.299000", "111444.302000", "111444.305000", "111444.307000", "111444.310000", "111444.313000", "111444.315000", "111444.318000", "111444.320000", "111444.323000", "111444.325000", "111444.328000", "111444.331000", "111444.333000", "111444.336000", "111444.338000", "111444.341000", "111444.343000", "111444.346000"],
