{
  "AcquisitionMatrixPE": 104,
  "AcquisitionNumber": 1,
  "AcquisitionTime": "11:16:6.317500",
  "BandwidthPerPixelPhaseEncode": 17.17,
  "BaseResolution": 104,
  "BodyPartExamined": "BRAIN",
  "CoilCombinationMethod": "Sum of Squares",
  "ConsistencyInfo": "N4_VE11C_LATEST_20160120",
  "ConversionSoftware": "dcm2niix",
  "ConversionSoftwareVersion": "v1.0.20211006",
  "DerivedVendorReportedEchoSpacing": 0.000560011,
  "DeviceSerialNumber": "167006",
  "DwellTime": 2.1e-06,
  "EchoTime": 0.037,
  "EchoTrainLength": 104,
  "EffectiveEchoSpacing": 0.000560011,
  "FlipAngle": 52,
  "HeudiconvVersion": "0.10.0",
  "ImageComments": "Unaliased MB4/PE3/LB",
  "ImageOrientationPatientDICOM": [0.99925, 0.00832831, 0.0378202, 0.0113366, 0.870913, -0.491306],
  "ImageOrientationText": "Tra>Cor(-29.5)>Sag(2.1)",
  "ImageType": [
    "ORIGINAL",
    "PRIMARY",
    "M",
    "MB",
    "ND",
    "MOSAIC"
],
  "ImagingFrequency": 123.259,
  "InPlanePhaseEncodingDirectionDICOM": "COL",
  "InstitutionAddress": "Chemin Queen-Mary 4565,Montreal,District,CA,H3W 1W5",
  "InstitutionName": "IUGM",
  "InstitutionalDepartmentName": "Department",
  "MRAcquisitionType": "2D",
  "MagneticFieldStrength": 3,
  "Manufacturer": "Siemens",
  "ManufacturersModelName": "Prisma_fit",
  "MatrixCoilMode": "SENSE",
  "Modality": "MR",
  "MultibandAccelerationFactor": 4,
  "PartialFourier": 1,
  "PatientPosition": "HFS",
  "PercentPhaseFOV": 100,
  "PercentSampling": 100,
  "PhaseEncodingDirection": "j",
  "PhaseEncodingSteps": 104,
  "PhaseResolution": 1,
  "PixelBandwidth": 2290,
  "ProcedureStepDescription": "games^mario",
  "ProtocolName": "func_task-mario_run-03",
  "PulseSequenceDetails": "%CustomerSeq%\\cmrr_mbep2d_bold",
  "ReceiveCoilActiveElements": "HC1-7;NC1,2",
  "ReceiveCoilName": "HeadNeck_64",
  "ReconMatrixPE": 104,
  "RepetitionTime": 1.49,
  "SAR": 0.0571006,
  "ScanOptions": "FS",
  "ScanningSequence": "EP",
  "SequenceName": "epfid2d1_104",
  "SequenceVariant": "SK\\SS",
  "SeriesDescription": "func_task-mario_run-03",
  "SeriesNumber": 16,
  "ShimSetting": [623, -7187, -8870, 216, 6, -124, 64, 3],
  "SliceThickness": 2,
  "SliceTiming": [0, 0.785, 0.1, 0.8825, 0.1975, 0.98, 0.295, 1.08, 0.3925, 1.1775, 0.49, 1.275, 0.59, 1.3725, 0.6875, 0, 0.785, 0.1, 0.8825, 0.1975, 0.98, 0.295, 1.08, 0.3925, 1.1775, 0.49, 1.275, 0.59, 1.3725, 0.6875, 0, 0.785, 0.1, 0.8825, 0.1975, 0.98, 0.295, 1.08, 0.3925, 1.1775, 0.49, 1.275, 0.59, 1.3725, 0.6875, 0, 0.785, 0.1, 0.8825, 0.1975, 0.98, 0.295, 1.08, 0.3925, 1.1775, 0.49, 1.275, 0.59, 1.3725, 0.6875],
  "SoftwareVersions": "syngo MR E11",
  "SpacingBetweenSlices": 2,
  "StationName": "MRC35049",
  "TaskName": "mario",
  "TotalReadoutTime": 0.0576811,
  "TxRefAmp": 289.257,
  "WipMemBlock": "8fe62919-3654-45f2-a17d-5c17a76f8815||Sequence: R016 ve11c/master r/e634e98; Dec 19 2017 11:00:25 by eja",
  "dcmmeta_affine": [
    [-1.9984997510910034, 0.022673169150948524, 0.07405977696180344, 104.39108276367188],
    [-0.016656626015901566, 1.7418261766433716, -0.9827329516410828, -51.51325607299805],
    [0.07564046233892441, 0.9826125502586365, 1.740330696105957, -93.09904479980469],
    [0.0, 0.0, 0.0, 1.0]
],
  "dcmmeta_reorient_transform": [
    [0.0, -1.0, 0.0, 103.0],
    [1.0, 0.0, 0.0, 0.0],
    [0.0, 0.0, 1.0, 0.0],
    [0.0, 0.0, 0.0, 1.0]
],
  "dcmmeta_shape": [104, 104, 60, 477],
  "dcmmeta_slice_dim": 2,
  "dcmmeta_version": 0.6,
  "global": {
    "const": {
      "AcquisitionMatrix": [104, 0, 0, 104],
      "AngioFlag": "N",
      "BitsAllocated": 16,
      "BitsStored": 16,
      "BodyPartExamined": "BRAIN",
      "Columns": 832,
      "EchoNumbers": 1,
      "EchoTime": 37.0,
      "EchoTrainLength": 104,
      "FlipAngle": 52.0,
      "HighBit": 15,
      "ImageOrientationPatient": [0.9992498533036, 0.00832831325952, 0.03782023097467, 0.01133658415732, 0.87091309413288, -0.4913062836231],
      "ImagePositionPatient": [-842.43334488251, -767.98258630204, 338.24789412502],
      "ImageType": [
        "ORIGINAL",
        "PRIMARY",
        "M",
        "MB",
        "ND",
        "MOSAIC"
],
      "ImagedNucleus": "1H",
      "ImagingFrequency": 123.258869,
      "InPlanePhaseEncodingDirection": "COL",
      "MRAcquisitionType": "2D",
      "MagneticFieldStrength": 3.0,
      "Manufacturer": "SIEMENS",
      "ManufacturerModelName": "Prisma_fit",
      "Modality": "MR",
      "NumberOfAverages": 1.0,
      "NumberOfPhaseEncodingSteps": 104,
      "PercentPhaseFieldOfView": 100.0,
      "PercentSampling": 100.0,
      "PerformedProcedureStepStartTime": "095830.568000",
      "PhotometricInterpretation": "MONOCHROME2",
      "PixelBandwidth": 2290.0,
      "PixelRepresentation": 0,
      "PixelSpacing": [2.0, 2.0],
      "ProtocolName": "func_task-mario_run-03",
      "RepetitionTime": 1490.0,
      "Rows": 832,
      "SAR": 0.05710061566599,
      "SamplesPerPixel": 1,
      "ScanOptions": "FS",
      "ScanningSequence": "EP",
      "SequenceName": "epfid2d1_104",
      "SequenceVariant": [
        "SK",
        "SS"
],
      "SeriesDescription": "func_task-mario_run-03",
      "SeriesNumber": 16,
      "SeriesTime": "111731.637000",
      "SliceLocation": -51.834088774309,
      "SliceThickness": 2.0,
      "SmallestImagePixelValue": 0,
      "SoftwareVersions": "syngo MR E11",
      "SpacingBetweenSlices": 1.9999999796313,
      "SpecificCharacterSet": "ISO_IR 100",
      "StudyID": "1",
      "StudyTime": "095830.510000",
      "TransmitCoilName": "Body",
      "VariableFlipAngleFlag": "N",
      "WindowCenterWidthExplanation": "Algo1",
      "dBdt": 0.0},
    "slices": {}
  },
  "time": {
    "samples": {
      "AcquisitionNumber": [1, 2, 3, 4, 5, 6, 7, 8, 9, 10, 11, 12, 13, 14, 15, 16, 17, 18, 19, 20, 21, 22, 23, 24, 25, 26, 27, 28, 29, 30, 31, 32, 33, 34, 35, 36, 37, 38, 39, 40, 41, 42, 43, 44, 45, 46, 47, 48, 49, 50, 51, 52, 53, 54, 55, 56, 57, 58, 59, 60, 61, 62, 63, 64, 65, 66, 67, 68, 69, 70, 71, 72, 73, 74, 75, 76, 77, 78, 79, 80, 81, 82, 83, 84, 85, 86, 87, 88, 89, 90, 91, 92, 93, 94, 95, 96, 97, 98, 99, 100, 101, 102, 103, 104, 105, 106, 107, 108, 109, 110, 111, 112, 113, 114, 115, 116, 117, 118, 119, 120, 121, 122, 123, 124, 125, 126, 127, 128, 129, 130, 131, 132, 133, 134, 135, 136, 137, 138, 139, 140, 141, 142, 143, 144, 145, 146, 147, 148, 149, 150, 151, 152, 153, 154, 155, 156, 157, 158, 159, 160, 161, 162, 163, 164, 165, 166, 167, 168, 169, 170, 171, 172, 173, 174, 175, 176, 177, 178, 179, 180, 181, 182, 183, 184, 185, 186, 187, 188, 189, 190, 191, 192, 193, 194, 195, 196, 197, 198, 199, 200, 201, 202, 203, 204, 205, 206, 207, 208, 209, 210, 211, 212, 213, 214, 215, 216, 217, 218, 219, 220, 221, 222, 223, 224, 225, 226, 227, 228, 229, 230, 231, 232, 233, 234, 235, 236, 237, 238, 239, 240, 241, 242, 243, 244, 245, 246, 247, 248, 249, 250, 251, 252, 253, 254, 255, 256, 257, 258, 259, 260, 261, 262, 263, 264, 265, 266, 267, 268, 269, 270, 271, 272, 273, 274, 275, 276, 277, 278, 279, 280, 281, 282, 283, 284, 285, 286, 287, 288, 289, 290, 291, 292, 293, 294, 295, 296, 297, 298, 299, 300, 301, 302, 303, 304, 305, 306, 307, 308, 309, 310, 311, 312, 313, 314, 315, 316, 317, 318, 319, 320, 321, 322, 323, 324, 325, 326, 327, 328, 329, 330, 331, 332, 333, 334, 335, 336, 337, 338, 339, 340, 341, 342, 343, 344, 345, 346, 347, 348, 349, 350, 351, 352, 353, 354, 355, 356, 357, 358, 359, 360, 361, 362, 363, 364, 365, 366, 367, 368, 369, 370, 371, 372, 373, 374, 375, 376, 377, 378, 379, 380, 381, 382, 383, 384, 385, 386, 387, 388, 389, 390, 391, 392, 393, 394, 395, 396, 397, 398, 399, 400, 401, 402, 403, 404, 405, 406, 407, 408, 409, 410, 411, 412, 413, 414, 415, 416, 417, 418, 419, 420, 421, 422, 423, 424, 425, 426, 427, 428, 429, 430, 431, 432, 433, 434, 435, 436, 437, 438, 439, 440, 441, 442, 443, 444, 445, 446, 447, 448, 449, 450, 451, 452, 453, 454, 455, 456, 457, 458, 459, 460, 461, 462, 463, 464, 465, 466, 467, 468, 469, 470, 471, 472, 473, 474, 475, 476, 477],
      "AcquisitionTime": ["111606.317500", "111607.807500", "111609.297500", "111610.787500", "111612.277500", "111613.767500", "111615.257500", "111616.747500", "111618.237500", "111619.727500", "111621.217500", "111622.707500", "111624.197500", "111625.687500", "111627.177500", "111628.667500", "111630.157500", "111631.647500", "111633.137500", "111634.627500", "111636.117500", "111637.607500", "111639.097500", "111640.587500", "111642.077500", "111643.567500", "111645.057500", "111646.547500", "111648.037500", "111649.527500", "111651.017500", "111652.507500", "111653.997500", "111655.487500", "111656.977500", "111658.467500", "111659.957500", "111701.447500", "111702.937500", "111704.427500", "111705.917500", "111707.407500", "111708.897500", "111710.387500", "111711.877500", "111713.367500", "111714.857500", "111716.347500", "111717.837500", "111719.327500", "111720.817500", "111722.307500", "111723.797500", "111725.287500", "111726.777500", "111728.267500", "111729.757500", "111731.247500", "111732.737500", "111734.227500", "111735.717500", "111737.207500", "111738.697500", "111740.187500", "111741.677500", "111743.167500", "111744.657500", "111746.147500", "111747.637500", "111749.127500", "111750.617500", "111752.107500", "111753.597500", "111755.087500", "111756.577500", "111758.067500", "111759.557500", "111801.047500", "111802.537500", "111804.027500", "111805.517500", "111807.007500", "111808.497500", "111809.987500", "111811.477500", "111812.967500", "111814.457500", "111815.947500", "111817.437500", "111818.927500", "111820.417500", "111821.907500", "111823.397500", "111824.887500", "111826.377500", "111827.867500", "111829.357500", "111830.847500", "111832.337500", "111833.827500", "111835.317500", "111836.807500", "111838.297500", "111839.787500", "111841.277500", "111842.767500", "111844.257500", "111845.747500", "111847.237500", "111848.727500", "111850.217500", "111851.707500", "111853.197500", "111854.687500", "111856.177500", "111857.667500", "111859.157500", "111900.647500", "111902.137500", "111903.627500", "111905.117500", "111906.607500", "111908.097500", "111909.587500", "111911.077500", "111912.567500", "111914.057500", "111915.547500", "111917.037500", "111918.527500", "111920.017500", "111921.507500", "111922.997500", "111924.487500", "111925.977500", "111927.467500", "111928.957500", "111930.447500", "111931.937500", "111933.427500", "111934.917500", "111936.407500", "111937.897500", "111939.387500", "111940.877500", "111942.367500", "111943.857500", "111945.347500", "111946.837500", "111948.327500", "111949.817500", "111951.307500", "111952.797500", "111954.287500", "111955.777500", "111957.267500", "111958.757500", "112000.247500", "112001.737500", "112003.227500", "112004.717500", "112006.207500", "112007.697500", "112009.187500", "112010.677500", "112012.167500", "112013.657500", "112015.147500", "112016.637500", "112018.127500", "112019.617500", "112021.107500", "112022.597500", "112024.087500", "112025.577500", "112027.067500", "112028.557500", "112030.047500", "112031.537500", "112033.027500", "112034.517500", "112036.007500", "112037.497500", "112038.987500", "112040.477500", "112041.967500", "112043.457500", "112044.947500", "112046.437500", "112047.927500", "112049.417500", "112050.907500", "112052.397500", "112053.887500", "112055.377500", "112056.867500", "112058.357500", "112059.847500", "112101.337500", "112102.827500", "112104.317500", "112105.807500", "112107.297500", "112108.787500", "112110.277500", "112111.767500", "112113.257500", "112114.747500", "112116.237500", "112117.727500", "112119.217500", "112120.707500", "112122.197500", "112123.687500", "112125.177500", "112126.667500", "112128.157500", "112129.647500", "112131.137500", "112132.627500", "112134.117500", "112135.607500", "112137.097500", "112138.587500", "112140.077500", "112141.567500", "112143.057500", "112144.547500", "112146.037500", "112147.527500", "112149.017500", "112150.507500", "112151.997500", "112153.487500", "112154.977500", "112156.467500", "112157.957500", "112159.447500", "112200.937500", "112202.427500", "112203.917500", "112205.407500", "112206.897500", "112208.387500", "112209.877500", "112211.367500", "112212.857500", "112214.347500", "112215.837500", "112217.327500", "112218.817500", "112220.307500", "112221.797500", "112223.287500", "112224.777500", "112226.267500", "112227.757500", "112229.247500", "112230.737500", "112232.227500", "112233.717500", "112235.207500", "112236.697500", "112238.187500", "112239.677500", "112241.167500", "112242.657500", "112244.147500", "112245.637500", "112247.127500", "112248.617500", "112250.107500", "112251.597500", "112253.087500", "112254.577500", "112256.067500", "112257.557500", "112259.047500", "112300.537500", "112302.027500", "112303.517500", "112305.007500", "112306.497500", "112307.987500", "112309.477500", "112310.967500", "112312.457500", "112313.947500", "112315.437500", "112316.927500", "112318.417500", "112319.907500", "112321.397500", "112322.887500", "112324.377500", "112325.867500", "112327.357500", "112328.847500", "112330.337500", "112331.827500", "112333.317500", "112334.807500", "112336.297500", "112337.787500", "112339.277500", "112340.767500", "112342.257500", "112343.747500", "112345.237500", "112346.727500", "112348.217500", "112349.707500", "112351.197500", "112352.687500", "112354.177500", "112355.667500", "112357.157500", "112358.647500", "112400.137500", "112401.627500", "112403.117500", "112404.607500", "112406.097500", "112407.587500", "112409.077500", "112410.567500", "112412.057500", "112413.547500", "112415.037500", "112416.527500", "112418.017500", "112419.507500", "112420.997500", "112422.487500", "112423.977500", "112425.467500", "112426.957500", "112428.447500", "112429.937500", "112431.427500", "112432.917500", "112434.407500", "112435.897500", "112437.387500", "112438.877500", "112440.367500", "112441.857500", "112443.347500", "112444.837500", "112446.327500", "112447.817500", "112449.307500", "112450.797500", "112452.287500", "112453.777500", "112455.267500", "112456.757500", "112458.247500", "112459.737500", "112501.227500", "112502.717500", "112504.207500", "112505.697500", "112507.187500", "112508.677500", "112510.167500", "112511.657500", "112513.147500", "112514.637500", "112516.127500", "112517.617500", "112519.107500", "112520.597500", "112522.087500", "112523.577500", "112525.067500", "112526.557500", "112528.047500", "112529.537500", "112531.027500", "112532.517500", "112534.007500", "112535.497500", "112536.987500", "112538.477500", "112539.967500", "112541.457500", "112542.947500", "112544.437500", "112545.927500", "112547.417500", "112548.907500", "112550.397500", "112551.887500", "112553.377500", "112554.867500", "112556.357500", "112557.847500", "112559.337500", "112600.827500", "112602.317500", "112603.807500", "112605.297500", "112606.787500", "112608.277500", "112609.767500", "112611.257500", "112612.747500", "112614.237500", "112615.727500", "112617.217500", "112618.707500", "112620.197500", "112621.687500", "112623.177500", "112624.667500", "112626.157500", "112627.647500", "112629.137500", "112630.627500", "112632.117500", "112633.607500", "112635.097500", "112636.587500", "112638.077500", "112639.567500", "112641.057500", "112642.547500", "112644.037500", "112645.527500", "112647.017500", "112648.507500", "112649.997500", "112651.487500", "112652.977500", "112654.467500", "112655.957500", "112657.447500", "112658.937500", "112700.427500", "112701.917500", "112703.407500", "112704.897500", "112706.387500", "112707.877500", "112709.367500", "112710.857500", "112712.347500", "112713.837500", "112715.327500", "112716.817500", "112718.307500", "112719.797500", "112721.287500", "112722.777500", "112724.267500", "112725.757500", "112727.247500", "112728.737500", "112730.227500", "112731.717500", "112733.207500", "112734.697500", "112736.187500", "112737.677500", "112739.167500", "112740.657500", "112742.147500", "112743.637500", "112745.127500", "112746.617500", "112748.107500", "112749.597500", "112751.087500", "112752.577500", "112754.067500", "112755.557500"],
      "ContentTime": ["111731.640000", "111731.644000", "111731.647000", "111731.651000", "111731.654000", "111731.658000", "111731.661000", "111731.665000", "111731.668000", "111731.671000", "111731.675000", "111731.678000", "111731.682000", "111731.685000", "111731.688000", "111731.692000", "111731.695000", "111731.699000", "111731.702000", "111731.705000", "111731.709000", "111731.712000", "111731.716000", "111731.719000", "111731.722000", "111731.726000", "111731.729000", "111731.732000", "111731.736000", "111731.739000", "111731.743000", "111751.600000", "111751.604000", "111751.608000", "111751.611000", "111751.614000", "111751.618000", "111751.621000", "111751.625000", "111751.628000", "111751.632000", "111751.635000", "111751.638000", "111751.642000", "111751.645000", "111751.649000", "111751.663000", "111751.667000", "111751.670000", "111751.674000", "111751.677000", "111811.601000", "111811.605000", "111811.609000", "111811.612000", "111811.616000", "111811.619000", "111811.622000", "111811.626000", "111811.629000", "111811.633000", "111811.636000", "111811.640000", "111811.643000", "111811.646000", "111811.650000", "111811.653000", "111811.657000", "111811.660000", "111811.664000", "111811.667000", "111831.601000", "111831.611000", "111831.615000", "111831.618000", "111831.622000", "111831.625000", "111831.629000", "111831.632000", "111831.636000", "111831.639000", "111831.643000", "111831.646000", "111831.649000", "111831.653000", "111831.656000", "111831.659000", "111831.663000", "111831.666000", "111831.670000", "111831.673000", "111911.601000", "111911.605000", "111911.614000", "111911.617000", "111911.621000", "111911.624000", "111911.628000", "111911.631000", "111911.635000", "111911.638000", "111911.642000", "111911.645000", "111911.648000", "111911.652000", "111911.656000", "111911.659000", "111911.662000", "111911.666000", "111911.669000", "111911.672000", "111911.676000", "111911.679000", "111911.683000", "111911.686000", "111911.690000", "111911.693000", "111911.696000", "111911.700000", "111911.703000", "111911.707000", "111911.710000", "111911.714000", "111911.717000", "111951.600000", "111951.604000", "111951.608000", "111951.611000", "111951.615000", "111951.618000", "111951.623000", "111951.627000", "111951.630000", "111951.634000", "111951.637000", "111951.640000", "111951.644000", "111951.648000", "111951.651000", "111951.655000", "111951.658000", "111951.662000", "111951.665000", "111951.669000", "111951.672000", "111951.676000", "111951.679000", "111951.683000", "111951.686000", "111951.690000", "112011.601000", "112011.604000", "112011.608000", "112011.611000", "112011.615000", "112011.618000", "112011.622000", "112011.625000", "112011.629000", "112011.632000", "112011.635000", "112011.639000", "112011.642000", "112011.646000", "112051.601000", "112051.605000", "112051.609000", "112051.612000", "112051.616000", "112051.619000", "112051.623000", "112051.626000", "112051.630000", "112051.633000", "112051.637000", "112051.640000", "112051.644000", "112051.647000", "112051.650000", "112051.654000", "112051.658000", "112051.661000", "112051.664000", "112051.668000", "112051.675000", "112051.678000", "112051.682000", "112051.685000", "112051.689000", "112051.692000", "112051.696000", "112131.601000", "112131.605000", "112131.609000", "112131.612000", "112131.616000", "112131.619000", "112131.623000", "112131.626000", "112131.630000", "112131.633000", "112131.637000", "112131.640000", "112131.644000", "112131.647000", "112131.651000", "112131.654000", "112131.658000", "112131.661000", "112131.665000", "112131.668000", "112131.671000", "112131.675000", "112131.678000", "112131.682000", "112131.685000", "112131.689000", "112211.600000", "112211.604000", "112211.608000", "112211.611000", "112211.615000", "112211.618000", "112211.622000", "112211.625000", "112211.629000", "112211.632000", "112211.636000", "112211.639000", "112211.643000", "112211.647000", "112211.650000", "112211.654000", "112211.657000", "112211.660000", "112211.664000", "112211.668000", "112211.671000", "112211.674000", "112211.678000", "112211.682000", "112211.686000", "112211.689000", "112211.704000", "112251.601000", "112251.605000", "112251.609000", "112251.612000", "112251.616000", "112251.619000", "112251.623000", "112251.626000", "112251.630000", "112251.633000", "112251.636000", "112251.640000", "112251.643000", "112251.647000", "112251.650000", "112251.654000", "112251.657000", "112251.661000", "112251.664000", "112251.668000", "112251.671000", "112251.675000", "112251.678000", "112251.681000", "112251.685000", "112251.688000", "112251.692000", "112331.601000", "112331.605000", "112331.609000", "112331.612000", "112331.616000", "112331.619000", "112331.623000", "112331.626000", "112331.629000", "112331.633000", "112331.636000", "112331.640000", "112331.643000", "112331.646000", "112331.650000", "112331.653000", "112331.657000", "112331.660000", "112331.664000", "112331.667000", "112331.670000", "112331.674000", "112331.677000", "112331.681000", "112331.684000", "112331.688000", "112331.691000", "112411.600000", "112411.604000", "112411.608000", "112411.611000", "112411.614000", "112411.618000", "112411.621000", "112411.625000", "112411.628000", "112411.632000", "112411.635000", "112411.638000", "112411.642000", "112411.645000", "112411.649000", "112411.652000", "112411.656000", "112411.659000", "112411.662000", "112411.666000", "112411.669000", "112411.673000", "112411.676000", "112411.679000", "112411.683000", "112411.686000", "112411.690000", "112451.601000", "112451.604000", "112451.608000", "112451.611000", "112451.615000", "112451.618000", "112451.638000", "112451.642000", "112451.645000", "112451.649000", "112451.652000", "112451.655000", "112451.659000", "112451.662000", "112451.666000", "112451.669000", "112451.673000", "112451.676000", "112451.679000", "112451.683000", "112451.686000", "112451.690000", "112451.693000", "112451.696000", "112451.700000", "112451.703000", "112451.707000", "112531.602000", "112531.605000", "112531.609000", "112531.612000", "112531.616000", "112531.619000", "112531.623000", "112531.626000", "112531.630000", "112531.633000", "112531.636000", "112531.640000", "112531.643000", "112531.648000", "112531.652000", "112531.655000", "112531.658000", "112531.662000", "112531.665000", "112531.669000", "112531.672000", "112531.676000", "112531.679000", "112531.682000", "112531.686000", "112531.689000", "112531.693000", "112611.602000", "112611.605000", "112611.609000", "112611.612000", "112611.616000", "112611.619000", "112611.623000", "112611.626000", "112611.630000", "112611.633000", "112611.636000", "112611.640000", "112611.643000", "112611.647000", "112611.650000", "112611.654000", "112611.657000", "112611.660000", "112611.664000", "112611.667000", "112611.671000", "112611.674000", "112611.678000", "112611.681000", "112611.684000", "112611.689000", "112651.600000", "112651.604000", "112651.608000", "112651.611000", "112651.614000", "112651.618000", "112651.621000", "112651.625000", "112651.628000", "112651.632000", "112651.635000", "112651.638000", "112651.642000", "112651.645000", "112651.649000", "112651.652000", "112651.655000", "112651.659000", "112651.662000", "112651.675000", "112651.679000", "112651.682000", "112651.686000", "112651.689000", "112651.693000", "112651.696000", "112651.699000", "112731.601000", "112731.605000", "112731.609000", "112731.612000", "112731.616000", "112731.619000", "112731.622000", "112731.626000", "112731.629000", "112731.633000", "112731.636000", "112731.640000", "112731.643000", "112731.647000", "112731.650000", "112731.654000", "112731.657000", "112731.661000", "112731.664000", "112731.668000", "112731.671000", "112731.675000", "112731.678000", "112731.682000", "112731.685000", "112731.689000", "112731.692000", "112757.541000", "112757.544000", "112757.548000", "112757.551000", "112757.555000", "112757.558000", "112757.562000", "112757.565000", "112757.569000", "112757.572000", "112757.576000", "112757.579000", "112757.583000", "112757.586000", "112757.590000", "112757.593000", "112757.597000", "112757.600000"],
