{
  "AcquisitionMatrixPE": 104,
  "AcquisitionNumber": 1,
  "AcquisitionTime": "11:29:43.910000",
  "BandwidthPerPixelPhaseEncode": 17.17,
  "BaseResolution": 104,
  "BodyPartExamined": "BRAIN",
  "CoilCombinationMethod": "Sum of Squares",
  "ConsistencyInfo": "N4_VE11C_LATEST_20160120",
  "ConversionSoftware": "dcm2niix",
  "ConversionSoftwareVersion": "v1.0.20211006",
  "DerivedVendorReportedEchoSpacing": 0.000560011,
  "DeviceSerialNumber": "167006",
  "DwellTime": 2.1e-06,
  "EchoTime": 0.037,
  "EchoTrainLength": 104,
  "EffectiveEchoSpacing": 0.000560011,
  "FlipAngle": 52,
  "HeudiconvVersion": "0.10.0",
  "ImageComments": "Unaliased MB4/PE3/LB",
  "ImageOrientationPatientDICOM": [0.99925, 0.00832831, 0.0378202, 0.0113366, 0.870913, -0.491306],
  "ImageOrientationText": "Tra>Cor(-29.5)>Sag(2.1)",
  "ImageType": [
    "ORIGINAL",
    "PRIMARY",
    "M",
    "MB",
    "ND",
    "MOSAIC"
],
  "ImagingFrequency": 123.259,
  "InPlanePhaseEncodingDirectionDICOM": "COL",
  "InstitutionAddress": "Chemin Queen-Mary 4565,Montreal,District,CA,H3W 1W5",
  "InstitutionName": "IUGM",
  "InstitutionalDepartmentName": "Department",
  "MRAcquisitionType": "2D",
  "MagneticFieldStrength": 3,
  "Manufacturer": "Siemens",
  "ManufacturersModelName": "Prisma_fit",
  "MatrixCoilMode": "SENSE",
  "Modality": "MR",
  "MultibandAccelerationFactor": 4,
  "PartialFourier": 1,
  "PatientPosition": "HFS",
  "PercentPhaseFOV": 100,
  "PercentSampling": 100,
  "PhaseEncodingDirection": "j",
  "PhaseEncodingSteps": 104,
  "PhaseResolution": 1,
  "PixelBandwidth": 2290,
  "ProcedureStepDescription": "games^mario",
  "ProtocolName": "func_task-mario_run-04",
  "PulseSequenceDetails": "%CustomerSeq%\\cmrr_mbep2d_bold",
  "ReceiveCoilActiveElements": "HC1-7;NC1,2",
  "ReceiveCoilName": "HeadNeck_64",
  "ReconMatrixPE": 104,
  "RepetitionTime": 1.49,
  "SAR": 0.0571006,
  "ScanOptions": "FS",
  "ScanningSequence": "EP",
  "SequenceName": "epfid2d1_104",
  "SequenceVariant": "SK\\SS",
  "SeriesDescription": "func_task-mario_run-04",
  "SeriesNumber": 19,
  "ShimSetting": [623, -7187, -8870, 216, 6, -124, 64, 3],
  "SliceThickness": 2,
  "SliceTiming": [0, 0.7825, 0.0975, 0.8825, 0.195, 0.98, 0.2925, 1.0775, 0.3925, 1.175, 0.49, 1.2725, 0.5875, 1.3725, 0.685, 0, 0.7825, 0.0975, 0.8825, 0.195, 0.98, 0.2925, 1.0775, 0.3925, 1.175, 0.49, 1.2725, 0.5875, 1.3725, 0.685, 0, 0.7825, 0.0975, 0.8825, 0.195, 0.98, 0.2925, 1.0775, 0.3925, 1.175, 0.49, 1.2725, 0.5875, 1.3725, 0.685, 0, 0.7825, 0.0975, 0.8825, 0.195, 0.98, 0.2925, 1.0775, 0.3925, 1.175, 0.49, 1.2725, 0.5875, 1.3725, 0.685],
  "SoftwareVersions": "syngo MR E11",
  "SpacingBetweenSlices": 2,
  "StationName": "MRC35049",
  "TaskName": "mario",
  "TotalReadoutTime": 0.0576811,
  "TxRefAmp": 289.257,
  "WipMemBlock": "c57bd8ac-a6db-4598-91a5-9e2e71adc78d||Sequence: R016 ve11c/master r/e634e98; Dec 19 2017 11:00:25 by eja",
  "dcmmeta_affine": [
    [-1.9984997510910034, 0.022673169150948524, 0.07405977696180344, 104.39108276367188],
    [-0.016656626015901566, 1.7418261766433716, -0.9827329516410828, -51.51325607299805],
    [0.07564046233892441, 0.9826125502586365, 1.740330696105957, -93.09904479980469],
    [0.0, 0.0, 0.0, 1.0]
],
  "dcmmeta_reorient_transform": [
    [0.0, -1.0, 0.0, 103.0],
    [1.0, 0.0, 0.0, 0.0],
    [0.0, 0.0, 1.0, 0.0],
    [0.0, 0.0, 0.0, 1.0]
],
  "dcmmeta_shape": [104, 104, 60, 488],
  "dcmmeta_slice_dim": 2,
  "dcmmeta_version": 0.6,
  "global": {
    "const": {
      "AcquisitionMatrix": [104, 0, 0, 104],
      "AngioFlag": "N",
      "BitsAllocated": 16,
      "BitsStored": 16,
      "BodyPartExamined": "BRAIN",
      "Columns": 832,
      "EchoNumbers": 1,
      "EchoTime": 37.0,
      "EchoTrainLength": 104,
      "FlipAngle": 52.0,
      "HighBit": 15,
      "ImageOrientationPatient": [0.9992498533036, 0.00832831325952, 0.03782023097467, 0.01133658415732, 0.87091309413288, -0.4913062836231],
      "ImagePositionPatient": [-842.43334488251, -767.98258630204, 338.24789412502],
      "ImageType": [
        "ORIGINAL",
        "PRIMARY",
        "M",
        "MB",
        "ND",
        "MOSAIC"
],
      "ImagedNucleus": "1H",
      "ImagingFrequency": 123.258879,
      "InPlanePhaseEncodingDirection": "COL",
      "MRAcquisitionType": "2D",
      "MagneticFieldStrength": 3.0,
      "Manufacturer": "SIEMENS",
      "ManufacturerModelName": "Prisma_fit",
      "Modality": "MR",
      "NumberOfAverages": 1.0,
      "NumberOfPhaseEncodingSteps": 104,
      "PercentPhaseFieldOfView": 100.0,
      "PercentSampling": 100.0,
      "PerformedProcedureStepStartTime": "095830.568000",
      "PhotometricInterpretation": "MONOCHROME2",
      "PixelBandwidth": 2290.0,
      "PixelRepresentation": 0,
      "PixelSpacing": [2.0, 2.0],
      "ProtocolName": "func_task-mario_run-04",
      "RepetitionTime": 1490.0,
      "Rows": 832,
      "SAR": 0.05710061566599,
      "SamplesPerPixel": 1,
      "ScanOptions": "FS",
      "ScanningSequence": "EP",
      "SequenceName": "epfid2d1_104",
      "SequenceVariant": [
        "SK",
        "SS"
],
      "SeriesDescription": "func_task-mario_run-04",
      "SeriesNumber": 19,
      "SeriesTime": "113044.419000",
      "SliceLocation": -51.834088774309,
      "SliceThickness": 2.0,
      "SmallestImagePixelValue": 0,
      "SoftwareVersions": "syngo MR E11",
      "SpacingBetweenSlices": 1.9999999796313,
      "SpecificCharacterSet": "ISO_IR 100",
      "StudyID": "1",
      "StudyTime": "095830.510000",
      "TransmitCoilName": "Body",
      "VariableFlipAngleFlag": "N",
      "WindowCenterWidthExplanation": "Algo1",
      "dBdt": 0.0},
    "slices": {}
  },
  "time": {
    "samples": {
      "AcquisitionNumber": [1, 2, 3, 4, 5, 6, 7, 8, 9, 10, 11, 12, 13, 14, 15, 16, 17, 18, 19, 20, 21, 22, 23, 24, 25, 26, 27, 28, 29, 30, 31, 32, 33, 34, 35, 36, 37, 38, 39, 40, 41, 42, 43, 44, 45, 46, 47, 48, 49, 50, 51, 52, 53, 54, 55, 56, 57, 58, 59, 60, 61, 62, 63, 64, 65, 66, 67, 68, 69, 70, 71, 72, 73, 74, 75, 76, 77, 78, 79, 80, 81, 82, 83, 84, 85, 86, 87, 88, 89, 90, 91, 92, 93, 94, 95, 96, 97, 98, 99, 100, 101, 102, 103, 104, 105, 106, 107, 108, 109, 110, 111, 112, 113, 114, 115, 116, 117, 118, 119, 120, 121, 122, 123, 124, 125, 126, 127, 128, 129, 130, 131, 132, 133, 134, 135, 136, 137, 138, 139, 140, 141, 142, 143, 144, 145, 146, 147, 148, 149, 150, 151, 152, 153, 154, 155, 156, 157, 158, 159, 160, 161, 162, 163, 164, 165, 166, 167, 168, 169, 170, 171, 172, 173, 174, 175, 176, 177, 178, 179, 180, 181, 182, 183, 184, 185, 186, 187, 188, 189, 190, 191, 192, 193, 194, 195, 196, 197, 198, 199, 200, 201, 202, 203, 204, 205, 206, 207, 208, 209, 210, 211, 212, 213, 214, 215, 216, 217, 218, 219, 220, 221, 222, 223, 224, 225, 226, 227, 228, 229, 230, 231, 232, 233, 234, 235, 236, 237, 238, 239, 240, 241, 242, 243, 244, 245, 246, 247, 248, 249, 250, 251, 252, 253, 254, 255, 256, 257, 258, 259, 260, 261, 262, 263, 264, 265, 266, 267, 268, 269, 270, 271, 272, 273, 274, 275, 276, 277, 278, 279, 280, 281, 282, 283, 284, 285, 286, 287, 288, 289, 290, 291, 292, 293, 294, 295, 296, 297, 298, 299, 300, 301, 302, 303, 304, 305, 306, 307, 308, 309, 310, 311, 312, 313, 314, 315, 316, 317, 318, 319, 320, 321, 322, 323, 324, 325, 326, 327, 328, 329, 330, 331, 332, 333, 334, 335, 336, 337, 338, 339, 340, 341, 342, 343, 344, 345, 346, 347, 348, 349, 350, 351, 352, 353, 354, 355, 356, 357, 358, 359, 360, 361, 362, 363, 364, 365, 366, 367, 368, 369, 370, 371, 372, 373, 374, 375, 376, 377, 378, 379, 380, 381, 382, 383, 384, 385, 386, 387, 388, 389, 390, 391, 392, 393, 394, 395, 396, 397, 398, 399, 400, 401, 402, 403, 404, 405, 406, 407, 408, 409, 410, 411, 412, 413, 414, 415, 416, 417, 418, 419, 420, 421, 422, 423, 424, 425, 426, 427, 428, 429, 430, 431, 432, 433, 434, 435, 436, 437, 438, 439, 440, 441, 442, 443, 444, 445, 446, 447, 448, 449, 450, 451, 452, 453, 454, 455, 456, 457, 458, 459, 460, 461, 462, 463, 464, 465, 466, 467, 468, 469, 470, 471, 472, 473, 474, 475, 476, 477, 478, 479, 480, 481, 482, 483, 484, 485, 486, 487, 488],
      "AcquisitionTime": ["112943.910000", "112945.400000", "112946.890000", "112948.380000", "112949.870000", "112951.360000", "112952.850000", "112954.340000", "112955.830000", "112957.320000", "112958.810000", "113000.300000", "113001.790000", "113003.280000", "113004.770000", "113006.260000", "113007.750000", "113009.240000", "113010.730000", "113012.220000", "113013.710000", "113015.200000", "113016.690000", "113018.180000", "113019.670000", "113021.160000", "113022.650000", "113024.140000", "113025.630000", "113027.120000", "113028.610000", "113030.100000", "113031.590000", "113033.080000", "113034.570000", "113036.060000", "113037.550000", "113039.040000", "113040.530000", "113042.020000", "113043.510000", "113045.000000", "113046.490000", "113047.980000", "113049.470000", "113050.960000", "113052.450000", "113053.940000", "113055.430000", "113056.920000", "113058.410000", "113059.900000", "113101.390000", "113102.880000", "113104.370000", "113105.860000", "113107.350000", "113108.840000", "113110.330000", "113111.820000", "113113.310000", "113114.800000", "113116.290000", "113117.780000", "113119.270000", "113120.760000", "113122.250000", "113123.740000", "113125.230000", "113126.720000", "113128.210000", "113129.700000", "113131.190000", "113132.680000", "113134.170000", "113135.660000", "113137.150000", "113138.640000", "113140.130000", "113141.620000", "113143.110000", "113144.600000", "113146.090000", "113147.580000", "113149.070000", "113150.560000", "113152.050000", "113153.540000", "113155.030000", "113156.520000", "113158.010000", "113159.500000", "113200.990000", "113202.480000", "113203.970000", "113205.460000", "113206.950000", "113208.440000", "113209.930000", "113211.420000", "113212.910000", "113214.400000", "113215.890000", "113217.380000", "113218.870000", "113220.360000", "113221.850000", "113223.340000", "113224.830000", "113226.320000", "113227.810000", "113229.300000", "113230.790000", "113232.280000", "113233.770000", "113235.260000", "113236.750000", "113238.240000", "113239.730000", "113241.220000", "113242.710000", "113244.200000", "113245.690000", "113247.180000", "113248.670000", "113250.160000", "113251.650000", "113253.140000", "113254.630000", "113256.120000", "113257.610000", "113259.100000", "113300.590000", "113302.080000", "113303.570000", "113305.060000", "113306.550000", "113308.040000", "113309.530000", "113311.020000", "113312.510000", "113314.000000", "113315.490000", "113316.980000", "113318.470000", "113319.960000", "113321.450000", "113322.940000", "113324.430000", "113325.920000", "113327.410000", "113328.900000", "113330.390000", "113331.880000", "113333.370000", "113334.860000", "113336.350000", "113337.840000", "113339.330000", "113340.820000", "113342.310000", "113343.800000", "113345.290000", "113346.780000", "113348.270000", "113349.760000", "113351.250000", "113352.740000", "113354.230000", "113355.720000", "113357.210000", "113358.700000", "113400.190000", "113401.680000", "113403.170000", "113404.660000", "113406.150000", "113407.640000", "113409.130000", "113410.620000", "113412.110000", "113413.600000", "113415.090000", "113416.580000", "113418.070000", "113419.560000", "113421.050000", "113422.540000", "113424.030000", "113425.520000", "113427.010000", "113428.500000", "113429.990000", "113431.480000", "113432.970000", "113434.460000", "113435.950000", "113437.440000", "113438.930000", "113440.420000", "113441.910000", "113443.400000", "113444.890000", "113446.380000", "113447.870000", "113449.360000", "113450.850000", "113452.340000", "113453.830000", "113455.320000", "113456.810000", "113458.300000", "113459.790000", "113501.280000", "113502.770000", "113504.260000", "113505.750000", "113507.240000", "113508.730000", "113510.220000", "113511.710000", "113513.200000", "113514.690000", "113516.180000", "113517.670000", "113519.160000", "113520.650000", "113522.140000", "113523.630000", "113525.120000", "113526.610000", "113528.100000", "113529.590000", "113531.080000", "113532.570000", "113534.060000", "113535.550000", "113537.040000", "113538.530000", "113540.020000", "113541.510000", "113543.000000", "113544.490000", "113545.980000", "113547.470000", "113548.960000", "113550.450000", "113551.940000", "113553.430000", "113554.920000", "113556.410000", "113557.900000", "113559.390000", "113600.880000", "113602.370000", "113603.860000", "113605.350000", "113606.840000", "113608.330000", "113609.820000", "113611.310000", "113612.800000", "113614.290000", "113615.780000", "113617.270000", "113618.760000", "113620.250000", "113621.740000", "113623.230000", "113624.720000", "113626.210000", "113627.700000", "113629.190000", "113630.680000", "113632.170000", "113633.660000", "113635.150000", "113636.640000", "113638.130000", "113639.620000", "113641.110000", "113642.600000", "113644.090000", "113645.580000", "113647.070000", "113648.560000", "113650.050000", "113651.540000", "113653.030000", "113654.520000", "113656.010000", "113657.500000", "113658.990000", "113700.480000", "113701.970000", "113703.460000", "113704.950000", "113706.440000", "113707.930000", "113709.420000", "113710.910000", "113712.400000", "113713.890000", "113715.380000", "113716.870000", "113718.360000", "113719.850000", "113721.340000", "113722.830000", "113724.320000", "113725.810000", "113727.300000", "113728.790000", "113730.280000", "113731.770000", "113733.260000", "113734.750000", "113736.240000", "113737.730000", "113739.220000", "113740.710000", "113742.200000", "113743.690000", "113745.180000", "113746.670000", "113748.160000", "113749.650000", "113751.140000", "113752.630000", "113754.120000", "113755.610000", "113757.100000", "113758.590000", "113800.080000", "113801.570000", "113803.060000", "113804.550000", "113806.040000", "113807.530000", "113809.020000", "113810.510000", "113812.000000", "113813.490000", "113814.980000", "113816.470000", "113817.960000", "113819.450000", "113820.940000", "113822.430000", "113823.920000", "113825.410000", "113826.900000", "113828.390000", "113829.880000", "113831.370000", "113832.860000", "113834.350000", "113835.840000", "113837.330000", "113838.820000", "113840.310000", "113841.800000", "113843.290000", "113844.780000", "113846.270000", "113847.760000", "113849.250000", "113850.740000", "113852.230000", "113853.720000", "113855.210000", "113856.700000", "113858.190000", "113859.680000", "113901.170000", "113902.660000", "113904.150000", "113905.640000", "113907.130000", "113908.620000", "113910.110000", "113911.600000", "113913.090000", "113914.580000", "113916.070000", "113917.560000", "113919.050000", "113920.540000", "113922.030000", "113923.520000", "113925.010000", "113926.500000", "113927.990000", "113929.480000", "113930.970000", "113932.460000", "113933.950000", "113935.440000", "113936.930000", "113938.420000", "113939.910000", "113941.400000", "113942.890000", "113944.380000", "113945.870000", "113947.360000", "113948.850000", "113950.340000", "113951.830000", "113953.320000", "113954.810000", "113956.300000", "113957.790000", "113959.280000", "114000.770000", "114002.260000", "114003.750000", "114005.240000", "114006.730000", "114008.220000", "114009.710000", "114011.200000", "114012.690000", "114014.180000", "114015.670000", "114017.160000", "114018.650000", "114020.140000", "114021.630000", "114023.120000", "114024.610000", "114026.100000", "114027.590000", "114029.080000", "114030.570000", "114032.060000", "114033.550000", "114035.040000", "114036.530000", "114038.020000", "114039.510000", "114041.000000", "114042.490000", "114043.980000", "114045.470000", "114046.960000", "114048.450000", "114049.940000", "114051.430000", "114052.920000", "114054.410000", "114055.900000", "114057.390000", "114058.880000", "114100.370000", "114101.860000", "114103.350000", "114104.840000", "114106.330000", "114107.820000", "114109.310000", "114110.800000", "114112.290000", "114113.780000", "114115.270000", "114116.760000", "114118.250000", "114119.740000", "114121.230000", "114122.720000", "114124.210000", "114125.700000", "114127.190000", "114128.680000", "114130.170000", "114131.660000", "114133.150000", "114134.640000", "114136.130000", "114137.620000", "114139.110000", "114140.600000", "114142.090000", "114143.580000", "114145.070000", "114146.560000", "114148.050000", "114149.540000"],
      "ContentTime": ["113044.422000", "113044.426000", "113044.430000", "113044.433000", "113044.437000", "113044.440000", "113104.369000", "113104.431000", "113104.434000", "113104.438000", "113104.441000", "113104.444000", "113104.448000", "113104.451000", "113104.455000", "113104.458000", "113104.461000", "113104.465000", "113104.468000", "113104.472000", "113104.494000", "113104.497000", "113104.501000", "113104.504000", "113104.507000", "113104.511000", "113104.514000", "113124.369000", "113124.373000", "113124.376000", "113124.380000", "113124.383000", "113124.387000", "113124.390000", "113124.393000", "113124.397000", "113124.400000", "113124.404000", "113124.407000", "113124.410000", "113124.414000", "113124.417000", "113124.421000", "113124.424000", "113124.427000", "113124.431000", "113124.434000", "113144.368000", "113144.372000", "113144.375000", "113144.379000", "113144.382000", "113144.386000", "113144.389000", "113144.393000", "113144.396000", "113144.399000", "113144.403000", "113144.406000", "113144.410000", "113144.413000", "113144.417000", "113144.428000", "113144.431000", "113144.435000", "113144.438000", "113144.442000", "113204.368000", "113204.372000", "113204.375000", "113204.379000", "113204.382000", "113204.386000", "113204.389000", "113204.393000", "113204.396000", "113204.399000", "113204.403000", "113204.406000", "113204.410000", "113204.413000", "113204.416000", "113204.420000", "113204.423000", "113204.427000", "113204.430000", "113204.434000", "113224.368000", "113224.372000", "113224.376000", "113224.379000", "113224.382000", "113224.386000", "113224.390000", "113224.393000", "113224.396000", "113224.400000", "113224.403000", "113224.407000", "113224.410000", "113224.414000", "113224.417000", "113224.420000", "113224.424000", "113224.427000", "113224.431000", "113224.434000", "113304.369000", "113304.373000", "113304.377000", "113304.380000", "113304.384000", "113304.387000", "113304.391000", "113304.394000", "113304.398000", "113304.401000", "113304.417000", "113304.420000", "113304.424000", "113304.427000", "113304.431000", "113304.434000", "113304.438000", "113304.441000", "113304.445000", "113304.448000", "113304.452000", "113304.456000", "113304.460000", "113304.465000", "113304.469000", "113304.472000", "113344.369000", "113344.373000", "113344.377000", "113344.380000", "113344.383000", "113344.387000", "113344.390000", "113344.394000", "113344.397000", "113344.401000", "113344.404000", "113344.408000", "113344.411000", "113344.414000", "113344.418000", "113344.421000", "113344.425000", "113344.428000", "113344.432000", "113344.435000", "113344.438000", "113344.442000", "113344.445000", "113344.449000", "113344.452000", "113344.456000", "113344.459000", "113424.368000", "113424.372000", "113424.375000", "113424.379000", "113424.383000", "113424.386000", "113424.389000", "113424.393000", "113424.396000", "113424.400000", "113424.403000", "113424.407000", "113424.410000", "113424.414000", "113424.417000", "113424.420000", "113424.424000", "113424.427000", "113424.431000", "113424.434000", "113424.438000", "113424.441000", "113424.445000", "113424.448000", "113424.452000", "113424.455000", "113424.458000", "113504.368000", "113504.372000", "113504.375000", "113504.379000", "113504.382000", "113504.386000", "113504.389000", "113504.392000", "113504.396000", "113504.399000", "113504.403000", "113504.406000", "113504.409000", "113504.413000", "113504.426000", "113504.430000", "113504.433000", "113504.437000", "113504.440000", "113504.444000", "113504.447000", "113504.450000", "113504.454000", "113504.457000", "113504.460000", "113504.464000", "113504.467000", "113544.369000", "113544.373000", "113544.376000", "113544.380000", "113544.383000", "113544.387000", "113544.390000", "113544.393000", "113544.397000", "113544.400000", "113544.404000", "113544.407000", "113544.410000", "113544.414000", "113544.417000", "113544.421000", "113544.424000", "113544.427000", "113544.431000", "113544.434000", "113544.438000", "113544.441000", "113544.445000", "113544.448000", "113544.451000", "113544.455000", "113544.458000", "113624.368000", "113624.372000", "113624.376000", "113624.379000", "113624.383000", "113624.386000", "113624.389000", "113624.393000", "113624.396000", "113624.400000", "113624.403000", "113624.407000", "113624.410000", "113624.413000", "113624.417000", "113624.421000", "113624.424000", "113624.427000", "113624.431000", "113624.434000", "113624.438000", "113624.441000", "113624.445000", "113624.448000", "113624.451000", "113624.455000", "113624.458000", "113704.368000", "113704.372000", "113704.376000", "113704.379000", "113704.383000", "113704.386000", "113704.390000", "113704.393000", "113704.397000", "113704.400000", "113704.403000", "113704.407000", "113704.410000", "113704.414000", "113704.417000", "113704.421000", "113704.424000", "113704.428000", "113704.431000", "113704.434000", "113704.438000", "113704.441000", "113704.445000", "113704.448000", "113704.452000", "113704.455000", "113704.458000", "113744.369000", "113744.373000", "113744.376000", "113744.380000", "113744.383000", "113744.387000", "113744.390000", "113744.393000", "113744.397000", "113744.400000", "113744.403000", "113744.407000", "113744.410000", "113744.414000", "113744.417000", "113744.421000", "113744.424000", "113744.427000", "113744.443000", "113744.446000", "113744.450000", "113744.453000", "113744.457000", "113744.460000", "113744.463000", "113744.467000", "113824.368000", "113824.372000", "113824.376000", "113824.379000", "113824.383000", "113824.386000", "113824.390000", "113824.393000", "113824.397000", "113824.400000", "113824.404000", "113824.407000", "113824.410000", "113824.414000", "113824.417000", "113824.421000", "113824.424000", "113824.427000", "113824.431000", "113824.434000", "113824.438000", "113824.441000", "113824.444000", "113824.448000", "113824.451000", "113824.454000", "113824.458000", "113904.368000", "113904.372000", "113904.376000", "113904.379000", "113904.383000", "113904.386000", "113904.389000", "113904.393000", "113904.396000", "113904.400000", "113904.403000", "113904.408000", "113904.412000", "113904.415000", "113904.419000", "113904.422000", "113904.426000", "113904.429000", "113904.433000", "113904.436000", "113904.440000", "113904.443000", "113904.446000", "113904.450000", "113904.453000", "113904.457000", "113904.460000", "113944.368000", "113944.372000", "113944.375000", "113944.379000", "113944.382000", "113944.386000", "113944.389000", "113944.392000", "113944.396000", "113944.399000", "113944.403000", "113944.406000", "113944.409000", "113944.414000", "113944.417000", "113944.421000", "113944.424000", "113944.428000", "113944.431000", "113944.434000", "113944.438000", "113944.441000", "113944.444000", "113944.448000", "113944.462000", "113944.466000", "113944.469000", "114024.370000", "114024.373000", "114024.377000", "114024.380000", "114024.383000", "114024.387000", "114024.390000", "114024.394000", "114024.397000", "114024.401000", "114024.404000", "114024.407000", "114024.411000", "114024.414000", "114024.417000", "114024.421000", "114024.424000", "114024.428000", "114024.431000", "114024.435000", "114024.438000", "114024.441000", "114024.445000", "114024.448000", "114024.452000", "114024.455000", "114024.458000", "114104.369000", "114104.372000", "114104.376000", "114104.379000", "114104.382000", "114104.386000", "114104.389000", "114104.393000", "114104.396000", "114104.400000", "114104.403000", "114104.406000", "114104.410000", "114104.413000", "114104.417000", "114104.420000", "114104.423000", "114104.427000", "114104.430000", "114104.434000", "114104.437000", "114104.440000", "114104.444000", "114104.447000", "114104.450000", "114104.454000", "114104.457000", "114144.368000", "114144.372000", "114144.375000", "114144.379000", "114144.382000", "114144.386000", "114144.389000", "114144.393000", "114144.396000", "114144.399000", "114144.403000", "114144.406000", "114144.410000", "114144.413000", "114144.417000", "114144.420000", "114144.423000", "114144.427000", "114144.430000", "114144.433000", "114144.437000", "114144.440000", "114144.445000", "114144.448000", "114144.452000", "114144.455000", "114152.934000", "114152.939000", "114152.943000", "114152.947000", "114152.951000", "114152.961000"],
