{
  "AcquisitionMatrixPE": 104,
  "AcquisitionNumber": 1,
  "AcquisitionTime": "17:49:59.152500",
  "BandwidthPerPixelPhaseEncode": 17.17,
  "BaseResolution": 104,
  "BodyPartExamined": "BRAIN",
  "CoilCombinationMethod": "Sum of Squares",
  "ConsistencyInfo": "N4_VE11C_LATEST_20160120",
  "ConversionSoftware": "dcm2niix",
  "ConversionSoftwareVersion": "v1.0.20211006",
  "DerivedVendorReportedEchoSpacing": 0.000560011,
  "DeviceSerialNumber": "167006",
  "DwellTime": 2.1e-06,
  "EchoTime": 0.037,
  "EchoTrainLength": 104,
  "EffectiveEchoSpacing": 0.000560011,
  "FlipAngle": 52,
  "HeudiconvVersion": "0.10.0",
  "ImageComments": "Unaliased MB4/PE3/LB",
  "ImageOrientationPatientDICOM": [0.998606, -0.0179248, 0.0496423, 0.0408065, 0.858735, -0.510793],
  "ImageOrientationText": "Tra>Cor(-30.8)>Sag(1.9)",
  "ImageType": [
    "ORIGINAL",
    "PRIMARY",
    "M",
    "MB",
    "ND",
    "MOSAIC"
],
  "ImagingFrequency": 123.259,
  "InPlanePhaseEncodingDirectionDICOM": "COL",
  "InstitutionAddress": "Chemin Queen-Mary 4565,Montreal,District,CA,H3W 1W5",
  "InstitutionName": "IUGM",
  "InstitutionalDepartmentName": "Department",
  "MRAcquisitionType": "2D",
  "MagneticFieldStrength": 3,
  "Manufacturer": "Siemens",
  "ManufacturersModelName": "Prisma_fit",
  "MatrixCoilMode": "SENSE",
  "Modality": "MR",
  "MultibandAccelerationFactor": 4,
  "PartialFourier": 1,
  "PatientPosition": "HFS",
  "PercentPhaseFOV": 100,
  "PercentSampling": 100,
  "PhaseEncodingDirection": "j",
  "PhaseEncodingSteps": 104,
  "PhaseResolution": 1,
  "PixelBandwidth": 2290,
  "ProcedureStepDescription": "games^mario",
  "ProtocolName": "func_task-mario_run-04",
  "PulseSequenceDetails": "%CustomerSeq%\\cmrr_mbep2d_bold",
  "ReceiveCoilActiveElements": "HC1-7;NC1,2",
  "ReceiveCoilName": "HeadNeck_64",
  "ReconMatrixPE": 104,
  "RepetitionTime": 1.49,
  "SAR": 0.0507186,
  "ScanOptions": "FS",
  "ScanningSequence": "EP",
  "SequenceName": "epfid2d1_104",
  "SequenceVariant": "SK\\SS",
  "SeriesDescription": "func_task-mario_run-04",
  "SeriesNumber": 19,
  "ShimSetting": [623, -7179, -8881, 221, -2, -178, 25, -15],
  "SliceThickness": 2,
  "SliceTiming": [0, 0.7825, 0.0975, 0.8825, 0.195, 0.98, 0.2925, 1.0775, 0.3925, 1.175, 0.49, 1.2725, 0.5875, 1.3725, 0.685, 0, 0.7825, 0.0975, 0.8825, 0.195, 0.98, 0.2925, 1.0775, 0.3925, 1.175, 0.49, 1.2725, 0.5875, 1.3725, 0.685, 0, 0.7825, 0.0975, 0.8825, 0.195, 0.98, 0.2925, 1.0775, 0.3925, 1.175, 0.49, 1.2725, 0.5875, 1.3725, 0.685, 0, 0.7825, 0.0975, 0.8825, 0.195, 0.98, 0.2925, 1.0775, 0.3925, 1.175, 0.49, 1.2725, 0.5875, 1.3725, 0.685],
  "SoftwareVersions": "syngo MR E11",
  "SpacingBetweenSlices": 2,
  "StationName": "MRC35049",
  "TaskName": "mario",
  "TotalReadoutTime": 0.0576811,
  "TxRefAmp": 271.408,
  "WipMemBlock": "24c5858c-73a7-484c-bee0-7dc1e52d4c60||Sequence: R016 ve11c/master r/e634e98; Dec 19 2017 11:00:25 by eja",
  "dcmmeta_affine": [
    [-1.9972124099731445, 0.08161290735006332, 0.06694737821817398, 101.23307037353516],
    [0.035849589854478836, 1.717469334602356, -1.0242136716842651, -52.254146575927734],
    [0.09928455948829651, 1.0215861797332764, 1.716538429260254, -104.86730194091797],
    [0.0, 0.0, 0.0, 1.0]
],
  "dcmmeta_reorient_transform": [
    [0.0, -1.0, 0.0, 103.0],
    [1.0, 0.0, 0.0, 0.0],
    [0.0, 0.0, 1.0, 0.0],
    [0.0, 0.0, 0.0, 1.0]
],
  "dcmmeta_shape": [104, 104, 60, 544],
  "dcmmeta_slice_dim": 2,
  "dcmmeta_version": 0.6,
  "global": {
    "const": {
      "AcquisitionMatrix": [104, 0, 0, 104],
      "AngioFlag": "N",
      "BitsAllocated": 16,
      "BitsStored": 16,
      "BodyPartExamined": "BRAIN",
      "Columns": 832,
      "EchoNumbers": 1,
      "EchoTime": 37.0,
      "EchoTrainLength": 104,
      "FlipAngle": 52.0,
      "HighBit": 15,
      "ImageOrientationPatient": [0.9986062015049, -0.0179247947388, 0.04964228086542, 0.04080645212472, 0.85873469309141, -0.5107930699865],
      "ImagePositionPatient": [-866.33160959246, -736.75480512539, 336.07384555628],
      "ImageType": [
        "ORIGINAL",
        "PRIMARY",
        "M",
        "MB",
        "ND",
        "MOSAIC"
],
      "ImagedNucleus": "1H",
      "ImagingFrequency": 123.258892,
      "InPlanePhaseEncodingDirection": "COL",
      "MRAcquisitionType": "2D",
      "MagneticFieldStrength": 3.0,
      "Manufacturer": "SIEMENS",
      "ManufacturerModelName": "Prisma_fit",
      "Modality": "MR",
      "NumberOfAverages": 1.0,
      "NumberOfPhaseEncodingSteps": 104,
      "PercentPhaseFieldOfView": 100.0,
      "PercentSampling": 100.0,
      "PerformedProcedureStepStartTime": "170934.171000",
      "PhotometricInterpretation": "MONOCHROME2",
      "PixelBandwidth": 2290.0,
      "PixelRepresentation": 0,
      "PixelSpacing": [2.0, 2.0],
      "ProtocolName": "func_task-mario_run-04",
      "RepetitionTime": 1490.0,
      "Rows": 832,
      "SAR": 0.05071860497142,
      "SamplesPerPixel": 1,
      "ScanOptions": "FS",
      "ScanningSequence": "EP",
      "SequenceName": "epfid2d1_104",
      "SequenceVariant": [
        "SK",
        "SS"
],
      "SeriesDescription": "func_task-mario_run-04",
      "SeriesNumber": 19,
      "SeriesTime": "175119.127000",
      "SliceLocation": -59.85602749496,
      "SliceThickness": 2.0,
      "SmallestImagePixelValue": 0,
      "SoftwareVersions": "syngo MR E11",
      "SpacingBetweenSlices": 1.9999999679009,
      "SpecificCharacterSet": "ISO_IR 100",
      "StudyID": "1",
      "StudyTime": "170934.026000",
      "TransmitCoilName": "Body",
      "VariableFlipAngleFlag": "N",
      "WindowCenterWidthExplanation": "Algo1",
      "dBdt": 0.0},
    "slices": {}
  },
  "time": {
    "samples": {
      "AcquisitionNumber": [1, 2, 3, 4, 5, 6, 7, 8, 9, 10, 11, 12, 13, 14, 15, 16, 17, 18, 19, 20, 21, 22, 23, 24, 25, 26, 27, 28, 29, 30, 31, 32, 33, 34, 35, 36, 37, 38, 39, 40, 41, 42, 43, 44, 45, 46, 47, 48, 49, 50, 51, 52, 53, 54, 55, 56, 57, 58, 59, 60, 61, 62, 63, 64, 65, 66, 67, 68, 69, 70, 71, 72, 73, 74, 75, 76, 77, 78, 79, 80, 81, 82, 83, 84, 85, 86, 87, 88, 89, 90, 91, 92, 93, 94, 95, 96, 97, 98, 99, 100, 101, 102, 103, 104, 105, 106, 107, 108, 109, 110, 111, 112, 113, 114, 115, 116, 117, 118, 119, 120, 121, 122, 123, 124, 125, 126, 127, 128, 129, 130, 131, 132, 133, 134, 135, 136, 137, 138, 139, 140, 141, 142, 143, 144, 145, 146, 147, 148, 149, 150, 151, 152, 153, 154, 155, 156, 157, 158, 159, 160, 161, 162, 163, 164, 165, 166, 167, 168, 169, 170, 171, 172, 173, 174, 175, 176, 177, 178, 179, 180, 181, 182, 183, 184, 185, 186, 187, 188, 189, 190, 191, 192, 193, 194, 195, 196, 197, 198, 199, 200, 201, 202, 203, 204, 205, 206, 207, 208, 209, 210, 211, 212, 213, 214, 215, 216, 217, 218, 219, 220, 221, 222, 223, 224, 225, 226, 227, 228, 229, 230, 231, 232, 233, 234, 235, 236, 237, 238, 239, 240, 241, 242, 243, 244, 245, 246, 247, 248, 249, 250, 251, 252, 253, 254, 255, 256, 257, 258, 259, 260, 261, 262, 263, 264, 265, 266, 267, 268, 269, 270, 271, 272, 273, 274, 275, 276, 277, 278, 279, 280, 281, 282, 283, 284, 285, 286, 287, 288, 289, 290, 291, 292, 293, 294, 295, 296, 297, 298, 299, 300, 301, 302, 303, 304, 305, 306, 307, 308, 309, 310, 311, 312, 313, 314, 315, 316, 317, 318, 319, 320, 321, 322, 323, 324, 325, 326, 327, 328, 329, 330, 331, 332, 333, 334, 335, 336, 337, 338, 339, 340, 341, 342, 343, 344, 345, 346, 347, 348, 349, 350, 351, 352, 353, 354, 355, 356, 357, 358, 359, 360, 361, 362, 363, 364, 365, 366, 367, 368, 369, 370, 371, 372, 373, 374, 375, 376, 377, 378, 379, 380, 381, 382, 383, 384, 385, 386, 387, 388, 389, 390, 391, 392, 393, 394, 395, 396, 397, 398, 399, 400, 401, 402, 403, 404, 405, 406, 407, 408, 409, 410, 411, 412, 413, 414, 415, 416, 417, 418, 419, 420, 421, 422, 423, 424, 425, 426, 427, 428, 429, 430, 431, 432, 433, 434, 435, 436, 437, 438, 439, 440, 441, 442, 443, 444, 445, 446, 447, 448, 449, 450, 451, 452, 453, 454, 455, 456, 457, 458, 459, 460, 461, 462, 463, 464, 465, 466, 467, 468, 469, 470, 471, 472, 473, 474, 475, 476, 477, 478, 479, 480, 481, 482, 483, 484, 485, 486, 487, 488, 489, 490, 491, 492, 493, 494, 495, 496, 497, 498, 499, 500, 501, 502, 503, 504, 505, 506, 507, 508, 509, 510, 511, 512, 513, 514, 515, 516, 517, 518, 519, 520, 521, 522, 523, 524, 525, 526, 527, 528, 529, 530, 531, 532, 533, 534, 535, 536, 537, 538, 539, 540, 541, 542, 543, 544],
      "AcquisitionTime": ["174959.152500", "175000.642500", "175002.132500", "175003.622500", "175005.112500", "175006.602500", "175008.092500", "175009.582500", "175011.072500", "175012.562500", "175014.052500", "175015.542500", "175017.032500", "175018.522500", "175020.012500", "175021.502500", "175022.992500", "175024.482500", "175025.972500", "175027.462500", "175028.952500", "175030.442500", "175031.932500", "175033.422500", "175034.912500", "175036.402500", "175037.892500", "175039.382500", "175040.872500", "175042.362500", "175043.852500", "175045.342500", "175046.832500", "175048.322500", "175049.812500", "175051.302500", "175052.792500", "175054.282500", "175055.772500", "175057.262500", "175058.752500", "175100.242500", "175101.732500", "175103.222500", "175104.712500", "175106.202500", "175107.692500", "175109.182500", "175110.672500", "175112.162500", "175113.652500", "175115.142500", "175116.632500", "175118.122500", "175119.612500", "175121.102500", "175122.592500", "175124.082500", "175125.572500", "175127.062500", "175128.552500", "175130.042500", "175131.532500", "175133.022500", "175134.512500", "175136.002500", "175137.492500", "175138.982500", "175140.472500", "175141.962500", "175143.452500", "175144.942500", "175146.432500", "175147.922500", "175149.412500", "175150.902500", "175152.392500", "175153.882500", "175155.372500", "175156.862500", "175158.352500", "175159.842500", "175201.332500", "175202.822500", "175204.312500", "175205.802500", "175207.292500", "175208.782500", "175210.272500", "175211.762500", "175213.252500", "175214.742500", "175216.232500", "175217.722500", "175219.212500", "175220.702500", "175222.192500", "175223.682500", "175225.172500", "175226.662500", "175228.152500", "175229.642500", "175231.132500", "175232.622500", "175234.112500", "175235.602500", "175237.092500", "175238.582500", "175240.072500", "175241.562500", "175243.052500", "175244.542500", "175246.032500", "175247.522500", "175249.012500", "175250.502500", "175251.992500", "175253.482500", "175254.972500", "175256.462500", "175257.952500", "175259.442500", "175300.932500", "175302.422500", "175303.912500", "175305.402500", "175306.892500", "175308.382500", "175309.872500", "175311.362500", "175312.852500", "175314.342500", "175315.832500", "175317.322500", "175318.812500", "175320.302500", "175321.792500", "175323.282500", "175324.772500", "175326.262500", "175327.752500", "175329.242500", "175330.732500", "175332.222500", "175333.712500", "175335.202500", "175336.692500", "175338.182500", "175339.672500", "175341.162500", "175342.652500", "175344.142500", "175345.632500", "175347.122500", "175348.612500", "175350.102500", "175351.592500", "175353.082500", "175354.572500", "175356.062500", "175357.552500", "175359.042500", "175400.532500", "175402.022500", "175403.512500", "175405.002500", "175406.492500", "175407.982500", "175409.472500", "175410.962500", "175412.452500", "175413.942500", "175415.432500", "175416.922500", "175418.412500", "175419.902500", "175421.392500", "175422.882500", "175424.372500", "175425.862500", "175427.352500", "175428.842500", "175430.332500", "175431.822500", "175433.312500", "175434.802500", "175436.292500", "175437.782500", "175439.272500", "175440.762500", "175442.252500", "175443.742500", "175445.232500", "175446.722500", "175448.212500", "175449.702500", "175451.192500", "175452.682500", "175454.172500", "175455.662500", "175457.152500", "175458.642500", "175500.132500", "175501.622500", "175503.112500", "175504.602500", "175506.092500", "175507.582500", "175509.072500", "175510.562500", "175512.052500", "175513.542500", "175515.032500", "175516.522500", "175518.012500", "175519.502500", "175520.992500", "175522.482500", "175523.972500", "175525.462500", "175526.952500", "175528.442500", "175529.932500", "175531.422500", "175532.912500", "175534.402500", "175535.892500", "175537.382500", "175538.872500", "175540.362500", "175541.852500", "175543.342500", "175544.832500", "175546.322500", "175547.812500", "175549.302500", "175550.792500", "175552.282500", "175553.772500", "175555.262500", "175556.752500", "175558.242500", "175559.732500", "175601.222500", "175602.712500", "175604.202500", "175605.692500", "175607.182500", "175608.672500", "175610.162500", "175611.652500", "175613.142500", "175614.632500", "175616.122500", "175617.612500", "175619.102500", "175620.592500", "175622.082500", "175623.572500", "175625.062500", "175626.552500", "175628.042500", "175629.532500", "175631.022500", "175632.512500", "175634.002500", "175635.492500", "175636.982500", "175638.472500", "175639.962500", "175641.452500", "175642.942500", "175644.432500", "175645.922500", "175647.412500", "175648.902500", "175650.392500", "175651.882500", "175653.372500", "175654.862500", "175656.352500", "175657.842500", "175659.332500", "175700.822500", "175702.312500", "175703.802500", "175705.292500", "175706.782500", "175708.272500", "175709.762500", "175711.252500", "175712.742500", "175714.232500", "175715.722500", "175717.212500", "175718.702500", "175720.192500", "175721.682500", "175723.172500", "175724.662500", "175726.152500", "175727.642500", "175729.132500", "175730.622500", "175732.112500", "175733.602500", "175735.092500", "175736.582500", "175738.072500", "175739.562500", "175741.052500", "175742.542500", "175744.032500", "175745.522500", "175747.012500", "175748.502500", "175749.992500", "175751.482500", "175752.972500", "175754.462500", "175755.952500", "175757.442500", "175758.932500", "175800.422500", "175801.912500", "175803.402500", "175804.892500", "175806.382500", "175807.872500", "175809.362500", "175810.852500", "175812.342500", "175813.832500", "175815.322500", "175816.812500", "175818.302500", "175819.792500", "175821.282500", "175822.772500", "175824.262500", "175825.752500", "175827.242500", "175828.732500", "175830.222500", "175831.712500", "175833.202500", "175834.692500", "175836.182500", "175837.672500", "175839.162500", "175840.652500", "175842.142500", "175843.632500", "175845.122500", "175846.612500", "175848.102500", "175849.592500", "175851.082500", "175852.572500", "175854.062500", "175855.552500", "175857.042500", "175858.532500", "175900.022500", "175901.512500", "175903.002500", "175904.492500", "175905.982500", "175907.472500", "175908.962500", "175910.452500", "175911.942500", "175913.432500", "175914.922500", "175916.412500", "175917.902500", "175919.392500", "175920.882500", "175922.372500", "175923.862500", "175925.352500", "175926.842500", "175928.332500", "175929.822500", "175931.312500", "175932.802500", "175934.292500", "175935.782500", "175937.272500", "175938.762500", "175940.252500", "175941.742500", "175943.232500", "175944.722500", "175946.212500", "175947.702500", "175949.192500", "175950.682500", "175952.172500", "175953.662500", "175955.152500", "175956.642500", "175958.132500", "175959.622500", "180001.112500", "180002.602500", "180004.092500", "180005.582500", "180007.072500", "180008.562500", "180010.052500", "180011.542500", "180013.032500", "180014.522500", "180016.012500", "180017.502500", "180018.992500", "180020.482500", "180021.972500", "180023.462500", "180024.952500", "180026.442500", "180027.932500", "180029.422500", "180030.912500", "180032.402500", "180033.892500", "180035.382500", "180036.872500", "180038.362500", "180039.852500", "180041.342500", "180042.832500", "180044.322500", "180045.812500", "180047.302500", "180048.792500", "180050.282500", "180051.772500", "180053.262500", "180054.752500", "180056.242500", "180057.732500", "180059.222500", "180100.712500", "180102.202500", "180103.692500", "180105.182500", "180106.672500", "180108.162500", "180109.652500", "180111.142500", "180112.632500", "180114.122500", "180115.612500", "180117.102500", "180118.592500", "180120.082500", "180121.572500", "180123.062500", "180124.552500", "180126.042500", "180127.532500", "180129.022500", "180130.512500", "180132.002500", "180133.492500", "180134.982500", "180136.472500", "180137.962500", "180139.452500", "180140.942500", "180142.432500", "180143.922500", "180145.412500", "180146.902500", "180148.392500", "180149.882500", "180151.372500", "180152.862500", "180154.352500", "180155.842500", "180157.332500", "180158.822500", "180200.312500", "180201.802500", "180203.292500", "180204.782500", "180206.272500", "180207.762500", "180209.252500", "180210.742500", "180212.232500", "180213.722500", "180215.212500", "180216.702500", "180218.192500", "180219.682500", "180221.172500", "180222.662500", "180224.152500", "180225.642500", "180227.132500", "180228.622500", "180230.112500", "180231.602500", "180233.092500", "180234.582500", "180236.072500", "180237.562500", "180239.052500", "180240.542500", "180242.032500", "180243.522500", "180245.012500", "180246.502500", "180247.992500", "180249.482500", "180250.972500", "180252.462500", "180253.952500", "180255.442500", "180256.932500", "180258.422500", "180259.912500", "180301.402500", "180302.892500", "180304.382500", "180305.872500", "180307.362500", "180308.852500", "180310.342500", "180311.832500", "180313.322500", "180314.812500", "180316.302500", "180317.792500", "180319.282500", "180320.772500", "180322.262500", "180323.752500", "180325.242500", "180326.732500", "180328.222500"],
      "ContentTime": ["175119.130000", "175119.134000", "175119.138000", "175119.141000", "175119.144000", "175119.147000", "175119.151000", "175119.154000", "175119.157000", "175119.160000", "175119.164000", "175119.167000", "175119.170000", "175119.173000", "175119.177000", "175119.180000", "175119.183000", "175119.186000", "175119.197000", "175119.201000", "175119.204000", "175119.207000", "175119.210000", "175119.214000", "175119.217000", "175119.220000", "175139.087000", "175139.091000", "175139.094000", "175139.097000", "175139.100000", "175139.103000", "175139.107000", "175139.110000", "175139.113000", "175139.116000", "175139.120000", "175139.123000", "175139.126000", "175139.129000", "175139.132000", "175139.136000", "175139.139000", "175139.142000", "175139.145000", "175139.149000", "175159.087000", "175159.091000", "175159.094000", "175159.097000", "175159.100000", "175159.104000", "175159.107000", "175159.110000", "175159.113000", "175159.117000", "175159.120000", "175159.123000", "175159.126000", "175159.130000", "175159.133000", "175159.136000", "175159.140000", "175159.143000", "175159.146000", "175159.149000", "175159.153000", "175219.087000", "175219.091000", "175219.094000", "175219.097000", "175219.100000", "175219.104000", "175219.107000", "175219.110000", "175219.114000", "175219.117000", "175219.120000", "175219.123000", "175219.126000", "175219.130000", "175219.133000", "175219.136000", "175219.140000", "175219.143000", "175219.146000", "175219.149000", "175259.087000", "175259.091000", "175259.094000", "175259.097000", "175259.100000", "175259.104000", "175259.107000", "175259.110000", "175259.113000", "175259.117000", "175259.120000", "175259.123000", "175259.126000", "175259.130000", "175259.133000", "175259.136000", "175259.139000", "175259.143000", "175259.146000", "175259.149000", "175259.153000", "175259.156000", "175259.160000", "175259.163000", "175259.166000", "175259.169000", "175259.173000", "175259.176000", "175259.179000", "175259.182000", "175259.186000", "175259.189000", "175259.192000", "175339.087000", "175339.091000", "175339.094000", "175339.097000", "175339.100000", "175339.104000", "175339.107000", "175339.110000", "175339.113000", "175339.117000", "175339.120000", "175339.123000", "175339.126000", "175339.130000", "175339.133000", "175339.136000", "175339.139000", "175339.143000", "175339.146000", "175339.149000", "175339.152000", "175339.156000", "175339.159000", "175339.162000", "175339.166000", "175339.169000", "175339.172000", "175419.087000", "175419.091000", "175419.094000", "175419.097000", "175419.109000", "175419.112000", "175419.116000", "175419.119000", "175419.122000", "175419.125000", "175419.129000", "175419.132000", "175419.135000", "175419.138000", "175419.142000", "175419.145000", "175419.148000", "175419.151000", "175419.155000", "175419.158000", "175419.162000", "175419.165000", "175419.168000", "175419.171000", "175419.175000", "175419.178000", "175459.087000", "175459.091000", "175459.094000", "175459.097000", "175459.100000", "175459.104000", "175459.107000", "175459.110000", "175459.114000", "175459.117000", "175459.120000", "175459.123000", "175459.127000", "175459.130000", "175459.133000", "175459.137000", "175459.140000", "175459.143000", "175459.146000", "175459.150000", "175459.153000", "175459.156000", "175459.159000", "175459.163000", "175459.166000", "175459.169000", "175459.172000", "175539.087000", "175539.091000", "175539.094000", "175539.097000", "175539.101000", "175539.104000", "175539.107000", "175539.111000", "175539.114000", "175539.117000", "175539.120000", "175539.124000", "175539.127000", "175539.130000", "175539.134000", "175539.137000", "175539.140000", "175539.143000", "175539.147000", "175539.150000", "175539.153000", "175539.157000", "175539.160000", "175539.163000", "175539.166000", "175539.170000", "175539.173000", "175619.087000", "175619.091000", "175619.094000", "175619.097000", "175619.101000", "175619.104000", "175619.107000", "175619.111000", "175619.114000", "175619.117000", "175619.121000", "175619.124000", "175619.127000", "175619.131000", "175619.134000", "175619.137000", "175619.140000", "175619.144000", "175619.147000", "175619.150000", "175619.154000", "175619.174000", "175619.177000", "175619.180000", "175619.184000", "175619.187000", "175619.190000", "175659.086000", "175659.090000", "175659.093000", "175659.096000", "175659.100000", "175659.103000", "175659.106000", "175659.110000", "175659.113000", "175659.116000", "175659.120000", "175659.123000", "175659.126000", "175659.129000", "175659.133000", "175659.136000", "175659.139000", "175659.143000", "175659.146000", "175659.149000", "175659.152000", "175659.156000", "175659.159000", "175659.162000", "175659.165000", "175659.169000", "175659.172000", "175719.087000", "175719.091000", "175719.094000", "175719.097000", "175719.101000", "175719.104000", "175719.107000", "175719.111000", "175719.114000", "175719.117000", "175719.120000", "175719.124000", "175719.127000", "175759.087000", "175759.091000", "175759.094000", "175759.097000", "175759.101000", "175759.104000", "175759.107000", "175759.110000", "175759.114000", "175759.117000", "175759.120000", "175759.124000", "175759.127000", "175759.131000", "175759.134000", "175759.137000", "175759.141000", "175759.144000", "175759.147000", "175759.151000", "175759.154000", "175759.157000", "175759.161000", "175759.164000", "175759.167000", "175759.170000", "175759.174000", "175839.087000", "175839.091000", "175839.094000", "175839.097000", "175839.101000", "175839.104000", "175839.107000", "175839.111000", "175839.114000", "175839.117000", "175839.121000", "175839.124000", "175839.127000", "175839.131000", "175839.134000", "175839.137000", "175839.140000", "175839.144000", "175839.147000", "175839.150000", "175839.153000", "175839.176000", "175839.179000", "175839.182000", "175839.186000", "175839.189000", "175839.192000", "175919.086000", "175919.090000", "175919.093000", "175919.096000", "175919.099000", "175919.103000", "175919.106000", "175919.109000", "175919.113000", "175919.116000", "175919.119000", "175919.122000", "175919.126000", "175919.129000", "175919.132000", "175919.136000", "175919.139000", "175919.142000", "175919.146000", "175919.149000", "175919.152000", "175919.155000", "175919.160000", "175919.164000", "175919.167000", "175919.170000", "175919.173000", "175959.087000", "175959.091000", "175959.094000", "175959.097000", "175959.100000", "175959.104000", "175959.107000", "175959.110000", "175959.114000", "175959.117000", "175959.120000", "175959.123000", "175959.127000", "175959.130000", "175959.133000", "175959.136000", "175959.140000", "175959.143000", "175959.146000", "175959.149000", "175959.153000", "175959.156000", "175959.159000", "175959.163000", "175959.166000", "175959.169000", "175959.172000", "180039.087000", "180039.091000", "180039.094000", "180039.097000", "180039.101000", "180039.104000", "180039.109000", "180039.114000", "180039.118000", "180039.122000", "180039.125000", "180039.130000", "180039.133000", "180039.136000", "180039.140000", "180039.143000", "180039.146000", "180039.149000", "180039.153000", "180039.156000", "180039.159000", "180039.163000", "180039.166000", "180039.169000", "180039.172000", "180039.176000", "180119.087000", "180119.091000", "180119.094000", "180119.097000", "180119.101000", "180119.104000", "180119.107000", "180119.111000", "180119.114000", "180119.117000", "180119.120000", "180119.124000", "180119.127000", "180119.130000", "180119.134000", "180119.137000", "180119.140000", "180119.143000", "180119.146000", "180119.150000", "180119.153000", "180119.156000", "180119.160000", "180119.163000", "180119.166000", "180119.169000", "180119.173000", "180159.087000", "180159.091000", "180159.094000", "180159.097000", "180159.101000", "180159.104000", "180159.107000", "180159.110000", "180159.114000", "180159.117000", "180159.120000", "180159.123000", "180159.127000", "180159.130000", "180159.133000", "180159.137000", "180159.140000", "180159.143000", "180159.147000", "180159.150000", "180159.153000", "180159.156000", "180159.160000", "180159.163000", "180159.166000", "180159.169000", "180159.173000", "180239.087000", "180239.091000", "180239.094000", "180239.098000", "180239.101000", "180239.104000", "180239.107000", "180239.111000", "180239.114000", "180239.117000", "180239.121000", "180239.124000", "180239.127000", "180239.130000", "180239.134000", "180239.137000", "180239.140000", "180239.143000", "180239.147000", "180239.150000", "180239.153000", "180239.157000", "180239.160000", "180239.163000", "180239.166000", "180239.170000", "180239.173000", "180319.087000", "180319.091000", "180319.094000", "180319.097000", "180319.118000", "180319.121000", "180319.125000", "180319.128000", "180319.131000", "180319.134000", "180319.138000", "180319.141000", "180319.144000", "180319.147000", "180319.151000", "180319.154000", "180319.157000", "180319.161000", "180319.164000", "180319.167000", "180319.170000", "180319.174000", "180319.177000", "180319.180000", "180319.183000", "180319.187000", "180319.190000", "180331.876000", "180331.880000", "180331.884000", "180331.887000", "180331.890000", "180331.894000", "180331.897000", "180331.900000"],
