{
  "AcquisitionMatrixPE": 104,
  "AcquisitionNumber": 1,
  "AcquisitionTime": "17:37:33.480000",
  "BandwidthPerPixelPhaseEncode": 17.17,
  "BaseResolution": 104,
  "BodyPartExamined": "BRAIN",
  "CoilCombinationMethod": "Sum of Squares",
  "ConsistencyInfo": "N4_VE11C_LATEST_20160120",
  "ConversionSoftware": "dcm2niix",
  "ConversionSoftwareVersion": "v1.0.20211006",
  "DerivedVendorReportedEchoSpacing": 0.000560011,
  "DeviceSerialNumber": "167006",
  "DwellTime": 2.1e-06,
  "EchoTime": 0.037,
  "EchoTime1": 0.037,
  "EchoTime2": 0.001,
  "EchoTrainLength": 104,
  "EffectiveEchoSpacing": 0.000560011,
  "FlipAngle": 52,
  "HeudiconvVersion": "0.10.0",
  "ImageComments": "Unaliased MB4/PE3/LB",
  "ImageOrientationPatientDICOM": [0.998606, -0.0179248, 0.0496423, 0.0408065, 0.858735, -0.510793],
  "ImageOrientationText": "Tra>Cor(-30.8)>Sag(1.9)",
  "ImageType": [
    "ORIGINAL",
    "PRIMARY",
    "P",
    "MB",
    "ND",
    "MOSAIC",
    "PHASE"
],
  "ImagingFrequency": 123.259,
  "InPlanePhaseEncodingDirectionDICOM": "COL",
  "InstitutionAddress": "Chemin Queen-Mary 4565,Montreal,District,CA,H3W 1W5",
  "InstitutionName": "IUGM",
  "InstitutionalDepartmentName": "Department",
  "MRAcquisitionType": "2D",
  "MagneticFieldStrength": 3,
  "Manufacturer": "Siemens",
  "ManufacturersModelName": "Prisma_fit",
  "MatrixCoilMode": "SENSE",
  "Modality": "MR",
  "MultibandAccelerationFactor": 4,
  "PartialFourier": 1,
  "PatientPosition": "HFS",
  "PercentPhaseFOV": 100,
  "PercentSampling": 100,
  "PhaseEncodingDirection": "j",
  "PhaseEncodingSteps": 104,
  "PhaseResolution": 1,
  "PixelBandwidth": 2290,
  "ProcedureStepDescription": "games^mario",
  "ProtocolName": "func_task-mario_run-03",
  "PulseSequenceDetails": "%CustomerSeq%\\cmrr_mbep2d_bold",
  "ReceiveCoilActiveElements": "HC1-7;NC1,2",
  "ReceiveCoilName": "HeadNeck_64",
  "ReconMatrixPE": 104,
  "RepetitionTime": 1.49,
  "SAR": 0.0507186,
  "ScanOptions": "FS",
  "ScanningSequence": "EP",
  "SequenceName": "epfid2d1_104",
  "SequenceVariant": "SK\\SS",
  "SeriesDescription": "func_task-mario_run-03",
  "SeriesNumber": 17,
  "ShimSetting": [623, -7179, -8881, 221, -2, -178, 25, -15],
  "SliceThickness": 2,
  "SliceTiming": [0, 0.785, 0.1, 0.8825, 0.1975, 0.98, 0.295, 1.08, 0.3925, 1.1775, 0.49, 1.275, 0.59, 1.3725, 0.6875, 0, 0.785, 0.1, 0.8825, 0.1975, 0.98, 0.295, 1.08, 0.3925, 1.1775, 0.49, 1.275, 0.59, 1.3725, 0.6875, 0, 0.785, 0.1, 0.8825, 0.1975, 0.98, 0.295, 1.08, 0.3925, 1.1775, 0.49, 1.275, 0.59, 1.3725, 0.6875, 0, 0.785, 0.1, 0.8825, 0.1975, 0.98, 0.295, 1.08, 0.3925, 1.1775, 0.49, 1.275, 0.59, 1.3725, 0.6875],
  "SoftwareVersions": "syngo MR E11",
  "SpacingBetweenSlices": 2,
  "StationName": "MRC35049",
  "TaskName": "mario",
  "TotalReadoutTime": 0.0576811,
  "TxRefAmp": 271.408,
  "WipMemBlock": "8b6053f1-844f-4b61-8cd5-b2235decad5a||Sequence: R016 ve11c/master r/e634e98; Dec 19 2017 11:00:25 by eja",
  "dcmmeta_affine": [
    [-1.9972124099731445, 0.08161290735006332, 0.06694737821817398, 101.23307037353516],
    [0.035849589854478836, 1.717469334602356, -1.0242136716842651, -52.254146575927734],
    [0.09928455948829651, 1.0215861797332764, 1.716538429260254, -104.86730194091797],
    [0.0, 0.0, 0.0, 1.0]
],
  "dcmmeta_reorient_transform": [
    [0.0, -1.0, 0.0, 103.0],
    [1.0, 0.0, 0.0, 0.0],
    [0.0, 0.0, 1.0, 0.0],
    [0.0, 0.0, 0.0, 1.0]
],
  "dcmmeta_shape": [104, 104, 60, 446],
  "dcmmeta_slice_dim": 2,
  "dcmmeta_version": 0.6,
  "global": {
    "const": {
      "AcquisitionMatrix": [104, 0, 0, 104],
      "AngioFlag": "N",
      "BitsAllocated": 16,
      "BitsStored": 16,
      "BodyPartExamined": "BRAIN",
      "Columns": 832,
      "EchoNumbers": 1,
      "EchoTime": 37.0,
      "EchoTrainLength": 104,
      "FlipAngle": 52.0,
      "HighBit": 15,
      "ImageOrientationPatient": [0.9986062015049, -0.0179247947388, 0.04964228086542, 0.04080645212472, 0.85873469309141, -0.5107930699865],
      "ImagePositionPatient": [-866.33160959246, -736.75480512539, 336.07384555628],
      "ImageType": [
        "ORIGINAL",
        "PRIMARY",
        "P",
        "MB",
        "ND",
        "MOSAIC"
],
      "ImagedNucleus": "1H",
      "ImagingFrequency": 123.258885,
      "InPlanePhaseEncodingDirection": "COL",
      "LargestImagePixelValue": 4095,
      "MRAcquisitionType": "2D",
      "MagneticFieldStrength": 3.0,
      "Manufacturer": "SIEMENS",
      "ManufacturerModelName": "Prisma_fit",
      "Modality": "MR",
      "NumberOfAverages": 1.0,
      "NumberOfPhaseEncodingSteps": 104,
      "PercentPhaseFieldOfView": 100.0,
      "PercentSampling": 100.0,
      "PerformedProcedureStepStartTime": "170934.171000",
      "PhotometricInterpretation": "MONOCHROME2",
      "PixelBandwidth": 2290.0,
      "PixelRepresentation": 0,
      "PixelSpacing": [2.0, 2.0],
      "ProtocolName": "func_task-mario_run-03",
      "RepetitionTime": 1490.0,
      "RescaleIntercept": -4096.0,
      "RescaleSlope": 2.0,
      "RescaleType": "US",
      "Rows": 832,
      "SAR": 0.05071860497142,
      "SamplesPerPixel": 1,
      "ScanOptions": "FS",
      "ScanningSequence": "EP",
      "SequenceName": "epfid2d1_104",
      "SequenceVariant": [
        "SK",
        "SS"
],
      "SeriesDescription": "func_task-mario_run-03",
      "SeriesNumber": 17,
      "SeriesTime": "173840.466000",
      "SliceLocation": -59.85602749496,
      "SliceThickness": 2.0,
      "SmallestImagePixelValue": 0,
      "SoftwareVersions": "syngo MR E11",
      "SpacingBetweenSlices": 1.9999999679009,
      "SpecificCharacterSet": "ISO_IR 100",
      "StudyID": "1",
      "StudyTime": "170934.026000",
      "TransmitCoilName": "Body",
      "VariableFlipAngleFlag": "N",
      "WindowCenterWidthExplanation": "Algo1",
      "dBdt": 0.0},
    "slices": {}
  },
  "time": {
    "samples": {
      "AcquisitionNumber": [1, 2, 3, 4, 5, 6, 7, 8, 9, 10, 11, 12, 13, 14, 15, 16, 17, 18, 19, 20, 21, 22, 23, 24, 25, 26, 27, 28, 29, 30, 31, 32, 33, 34, 35, 36, 37, 38, 39, 40, 41, 42, 43, 44, 45, 46, 47, 48, 49, 50, 51, 52, 53, 54, 55, 56, 57, 58, 59, 60, 61, 62, 63, 64, 65, 66, 67, 68, 69, 70, 71, 72, 73, 74, 75, 76, 77, 78, 79, 80, 81, 82, 83, 84, 85, 86, 87, 88, 89, 90, 91, 92, 93, 94, 95, 96, 97, 98, 99, 100, 101, 102, 103, 104, 105, 106, 107, 108, 109, 110, 111, 112, 113, 114, 115, 116, 117, 118, 119, 120, 121, 122, 123, 124, 125, 126, 127, 128, 129, 130, 131, 132, 133, 134, 135, 136, 137, 138, 139, 140, 141, 142, 143, 144, 145, 146, 147, 148, 149, 150, 151, 152, 153, 154, 155, 156, 157, 158, 159, 160, 161, 162, 163, 164, 165, 166, 167, 168, 169, 170, 171, 172, 173, 174, 175, 176, 177, 178, 179, 180, 181, 182, 183, 184, 185, 186, 187, 188, 189, 190, 191, 192, 193, 194, 195, 196, 197, 198, 199, 200, 201, 202, 203, 204, 205, 206, 207, 208, 209, 210, 211, 212, 213, 214, 215, 216, 217, 218, 219, 220, 221, 222, 223, 224, 225, 226, 227, 228, 229, 230, 231, 232, 233, 234, 235, 236, 237, 238, 239, 240, 241, 242, 243, 244, 245, 246, 247, 248, 249, 250, 251, 252, 253, 254, 255, 256, 257, 258, 259, 260, 261, 262, 263, 264, 265, 266, 267, 268, 269, 270, 271, 272, 273, 274, 275, 276, 277, 278, 279, 280, 281, 282, 283, 284, 285, 286, 287, 288, 289, 290, 291, 292, 293, 294, 295, 296, 297, 298, 299, 300, 301, 302, 303, 304, 305, 306, 307, 308, 309, 310, 311, 312, 313, 314, 315, 316, 317, 318, 319, 320, 321, 322, 323, 324, 325, 326, 327, 328, 329, 330, 331, 332, 333, 334, 335, 336, 337, 338, 339, 340, 341, 342, 343, 344, 345, 346, 347, 348, 349, 350, 351, 352, 353, 354, 355, 356, 357, 358, 359, 360, 361, 362, 363, 364, 365, 366, 367, 368, 369, 370, 371, 372, 373, 374, 375, 376, 377, 378, 379, 380, 381, 382, 383, 384, 385, 386, 387, 388, 389, 390, 391, 392, 393, 394, 395, 396, 397, 398, 399, 400, 401, 402, 403, 404, 405, 406, 407, 408, 409, 410, 411, 412, 413, 414, 415, 416, 417, 418, 419, 420, 421, 422, 423, 424, 425, 426, 427, 428, 429, 430, 431, 432, 433, 434, 435, 436, 437, 438, 439, 440, 441, 442, 443, 444, 445, 446],
      "AcquisitionTime": ["173733.480000", "173734.970000", "173736.460000", "173737.950000", "173739.440000", "173740.930000", "173742.420000", "173743.910000", "173745.400000", "173746.890000", "173748.380000", "173749.870000", "173751.360000", "173752.850000", "173754.340000", "173755.830000", "173757.320000", "173758.810000", "173800.300000", "173801.790000", "173803.280000", "173804.770000", "173806.260000", "173807.750000", "173809.240000", "173810.730000", "173812.220000", "173813.710000", "173815.200000", "173816.690000", "173818.180000", "173819.670000", "173821.160000", "173822.650000", "173824.140000", "173825.630000", "173827.120000", "173828.610000", "173830.100000", "173831.590000", "173833.080000", "173834.570000", "173836.060000", "173837.550000", "173839.040000", "173840.530000", "173842.020000", "173843.510000", "173845.000000", "173846.490000", "173847.980000", "173849.470000", "173850.960000", "173852.450000", "173853.940000", "173855.430000", "173856.920000", "173858.410000", "173859.900000", "173901.390000", "173902.880000", "173904.370000", "173905.860000", "173907.350000", "173908.840000", "173910.330000", "173911.820000", "173913.310000", "173914.800000", "173916.290000", "173917.780000", "173919.270000", "173920.760000", "173922.250000", "173923.740000", "173925.230000", "173926.720000", "173928.210000", "173929.700000", "173931.190000", "173932.680000", "173934.170000", "173935.660000", "173937.150000", "173938.640000", "173940.130000", "173941.620000", "173943.110000", "173944.600000", "173946.090000", "173947.580000", "173949.070000", "173950.560000", "173952.050000", "173953.540000", "173955.030000", "173956.520000", "173958.010000", "173959.500000", "174000.990000", "174002.480000", "174003.970000", "174005.460000", "174006.950000", "174008.440000", "174009.930000", "174011.420000", "174012.910000", "174014.400000", "174015.890000", "174017.380000", "174018.870000", "174020.360000", "174021.850000", "174023.340000", "174024.830000", "174026.320000", "174027.810000", "174029.300000", "174030.790000", "174032.280000", "174033.770000", "174035.260000", "174036.750000", "174038.240000", "174039.730000", "174041.220000", "174042.710000", "174044.200000", "174045.690000", "174047.180000", "174048.670000", "174050.160000", "174051.650000", "174053.140000", "174054.630000", "174056.120000", "174057.610000", "174059.100000", "174100.590000", "174102.080000", "174103.570000", "174105.060000", "174106.550000", "174108.040000", "174109.530000", "174111.020000", "174112.510000", "174114.000000", "174115.490000", "174116.980000", "174118.470000", "174119.960000", "174121.450000", "174122.940000", "174124.430000", "174125.920000", "174127.410000", "174128.900000", "174130.390000", "174131.880000", "174133.370000", "174134.860000", "174136.350000", "174137.840000", "174139.330000", "174140.820000", "174142.310000", "174143.800000", "174145.290000", "174146.780000", "174148.270000", "174149.760000", "174151.250000", "174152.740000", "174154.230000", "174155.720000", "174157.210000", "174158.700000", "174200.190000", "174201.680000", "174203.170000", "174204.660000", "174206.150000", "174207.640000", "174209.130000", "174210.620000", "174212.110000", "174213.600000", "174215.090000", "174216.580000", "174218.070000", "174219.560000", "174221.050000", "174222.540000", "174224.030000", "174225.520000", "174227.010000", "174228.500000", "174229.990000", "174231.480000", "174232.970000", "174234.460000", "174235.950000", "174237.440000", "174238.930000", "174240.420000", "174241.910000", "174243.400000", "174244.890000", "174246.380000", "174247.870000", "174249.360000", "174250.850000", "174252.340000", "174253.830000", "174255.320000", "174256.810000", "174258.300000", "174259.790000", "174301.280000", "174302.770000", "174304.260000", "174305.750000", "174307.240000", "174308.730000", "174310.220000", "174311.710000", "174313.200000", "174314.690000", "174316.180000", "174317.670000", "174319.160000", "174320.650000", "174322.140000", "174323.630000", "174325.120000", "174326.610000", "174328.100000", "174329.590000", "174331.080000", "174332.570000", "174334.060000", "174335.550000", "174337.040000", "174338.530000", "174340.020000", "174341.510000", "174343.000000", "174344.490000", "174345.980000", "174347.470000", "174348.960000", "174350.450000", "174351.940000", "174353.430000", "174354.920000", "174356.410000", "174357.900000", "174359.390000", "174400.880000", "174402.370000", "174403.860000", "174405.350000", "174406.840000", "174408.330000", "174409.820000", "174411.310000", "174412.800000", "174414.290000", "174415.780000", "174417.270000", "174418.760000", "174420.250000", "174421.740000", "174423.230000", "174424.720000", "174426.210000", "174427.700000", "174429.190000", "174430.680000", "174432.170000", "174433.660000", "174435.150000", "174436.640000", "174438.130000", "174439.620000", "174441.110000", "174442.600000", "174444.090000", "174445.580000", "174447.070000", "174448.560000", "174450.050000", "174451.540000", "174453.030000", "174454.520000", "174456.010000", "174457.500000", "174458.990000", "174500.480000", "174501.970000", "174503.460000", "174504.950000", "174506.440000", "174507.930000", "174509.420000", "174510.910000", "174512.400000", "174513.890000", "174515.380000", "174516.870000", "174518.360000", "174519.850000", "174521.340000", "174522.830000", "174524.320000", "174525.810000", "174527.300000", "174528.790000", "174530.280000", "174531.770000", "174533.260000", "174534.750000", "174536.240000", "174537.730000", "174539.220000", "174540.710000", "174542.200000", "174543.690000", "174545.180000", "174546.670000", "174548.160000", "174549.650000", "174551.140000", "174552.630000", "174554.120000", "174555.610000", "174557.100000", "174558.590000", "174600.080000", "174601.570000", "174603.060000", "174604.550000", "174606.040000", "174607.530000", "174609.020000", "174610.510000", "174612.000000", "174613.490000", "174614.980000", "174616.470000", "174617.960000", "174619.450000", "174620.940000", "174622.430000", "174623.920000", "174625.410000", "174626.900000", "174628.390000", "174629.880000", "174631.370000", "174632.860000", "174634.350000", "174635.840000", "174637.330000", "174638.820000", "174640.310000", "174641.800000", "174643.290000", "174644.780000", "174646.270000", "174647.760000", "174649.250000", "174650.740000", "174652.230000", "174653.720000", "174655.210000", "174656.700000", "174658.190000", "174659.680000", "174701.170000", "174702.660000", "174704.150000", "174705.640000", "174707.130000", "174708.620000", "174710.110000", "174711.600000", "174713.090000", "174714.580000", "174716.070000", "174717.560000", "174719.050000", "174720.540000", "174722.030000", "174723.520000", "174725.010000", "174726.500000", "174727.990000", "174729.480000", "174730.970000", "174732.460000", "174733.950000", "174735.440000", "174736.930000", "174738.420000", "174739.910000", "174741.400000", "174742.890000", "174744.380000", "174745.870000", "174747.360000", "174748.850000", "174750.340000", "174751.830000", "174753.320000", "174754.810000", "174756.300000", "174757.790000", "174759.280000", "174800.770000", "174802.260000", "174803.750000", "174805.240000", "174806.730000", "174808.220000", "174809.710000", "174811.200000", "174812.690000", "174814.180000", "174815.670000", "174817.160000", "174818.650000", "174820.140000", "174821.630000", "174823.120000", "174824.610000", "174826.100000", "174827.590000", "174829.080000", "174830.570000", "174832.060000", "174833.550000", "174835.040000", "174836.530000"],
      "ContentTime": ["173840.468000", "173840.471000", "173840.474000", "173840.476000", "173840.479000", "173840.481000", "173840.484000", "173840.486000", "173840.489000", "173840.491000", "173840.494000", "173900.506000", "173900.509000", "173900.512000", "173900.514000", "173900.517000", "173900.519000", "173900.521000", "173900.524000", "173900.526000", "173900.529000", "173900.531000", "173900.534000", "173900.536000", "173900.538000", "173900.541000", "173900.543000", "173900.546000", "173900.548000", "173900.551000", "173900.553000", "173900.556000", "173920.477000", "173920.479000", "173920.482000", "173920.484000", "173920.487000", "173920.489000", "173920.492000", "173920.494000", "173920.497000", "173920.499000", "173920.501000", "173920.504000", "173920.506000", "173920.509000", "173920.511000", "173920.514000", "173920.516000", "173920.518000", "173920.521000", "173920.523000", "173940.493000", "173940.496000", "173940.498000", "173940.501000", "173940.503000", "173940.506000", "173940.508000", "173940.511000", "173940.513000", "173940.515000", "173940.518000", "173940.520000", "173940.523000", "173940.525000", "173940.528000", "173940.530000", "173940.533000", "173940.535000", "173940.537000", "173940.540000", "173940.542000", "174000.492000", "174000.494000", "174000.497000", "174000.499000", "174000.502000", "174000.504000", "174000.507000", "174000.509000", "174000.512000", "174000.514000", "174000.517000", "174000.519000", "174000.521000", "174000.524000", "174000.526000", "174000.529000", "174000.531000", "174000.534000", "174000.536000", "174000.539000", "174040.534000", "174040.537000", "174040.540000", "174040.542000", "174040.545000", "174040.547000", "174040.550000", "174040.552000", "174040.554000", "174040.557000", "174040.559000", "174040.562000", "174040.564000", "174040.567000", "174040.569000", "174040.572000", "174040.575000", "174040.577000", "174040.579000", "174040.582000", "174040.584000", "174040.587000", "174040.589000", "174040.592000", "174040.594000", "174040.597000", "174040.599000", "174040.602000", "174040.605000", "174040.607000", "174040.610000", "174040.612000", "174120.862000", "174120.865000", "174120.867000", "174120.870000", "174120.872000", "174120.875000", "174120.877000", "174120.880000", "174120.882000", "174120.885000", "174120.887000", "174120.890000", "174120.892000", "174120.895000", "174120.897000", "174120.900000", "174120.902000", "174120.905000", "174120.907000", "174120.910000", "174120.912000", "174120.915000", "174120.917000", "174120.920000", "174120.922000", "174120.925000", "174120.927000", "174200.505000", "174200.507000", "174200.510000", "174200.512000", "174200.515000", "174200.517000", "174200.520000", "174200.522000", "174200.525000", "174200.527000", "174200.530000", "174200.532000", "174200.535000", "174200.537000", "174200.539000", "174200.542000", "174200.544000", "174200.547000", "174200.549000", "174200.552000", "174200.554000", "174200.557000", "174200.559000", "174200.562000", "174200.564000", "174200.567000", "174240.517000", "174240.520000", "174240.522000", "174240.525000", "174240.532000", "174240.535000", "174240.537000", "174240.540000", "174240.542000", "174240.545000", "174240.547000", "174240.550000", "174240.552000", "174240.555000", "174240.557000", "174240.560000", "174240.562000", "174240.565000", "174240.567000", "174240.570000", "174240.572000", "174240.575000", "174240.577000", "174240.580000", "174240.582000", "174240.585000", "174240.587000", "174320.525000", "174320.527000", "174320.530000", "174320.532000", "174320.535000", "174320.537000", "174320.540000", "174320.542000", "174320.545000", "174320.547000", "174320.550000", "174320.552000", "174320.555000", "174320.557000", "174320.560000", "174320.562000", "174320.565000", "174320.567000", "174320.570000", "174320.572000", "174320.575000", "174320.577000", "174320.580000", "174320.582000", "174320.585000", "174320.587000", "174320.590000", "174400.511000", "174400.514000", "174400.516000", "174400.519000", "174400.521000", "174400.524000", "174400.526000", "174400.528000", "174400.531000", "174400.533000", "174400.536000", "174400.538000", "174400.541000", "174400.543000", "174400.546000", "174400.548000", "174400.551000", "174400.553000", "174400.556000", "174400.558000", "174400.561000", "174400.563000", "174400.566000", "174400.568000", "174400.571000", "174400.573000", "174400.576000", "174440.524000", "174440.527000", "174440.530000", "174440.532000", "174440.535000", "174440.537000", "174440.540000", "174440.542000", "174440.544000", "174440.547000", "174440.549000", "174440.552000", "174440.554000", "174440.557000", "174440.559000", "174440.562000", "174440.564000", "174440.567000", "174440.569000", "174440.572000", "174440.574000", "174440.577000", "174440.579000", "174440.582000", "174440.584000", "174440.587000", "174440.590000", "174520.521000", "174520.523000", "174520.526000", "174520.528000", "174520.531000", "174520.533000", "174520.536000", "174520.538000", "174520.541000", "174520.543000", "174520.546000", "174520.548000", "174520.551000", "174520.553000", "174520.556000", "174520.558000", "174520.561000", "174520.563000", "174520.565000", "174520.568000", "174520.571000", "174520.573000", "174520.575000", "174520.578000", "174520.580000", "174520.583000", "174520.585000", "174600.501000", "174600.504000", "174600.506000", "174600.509000", "174600.511000", "174600.514000", "174600.516000", "174600.519000", "174600.521000", "174600.524000", "174600.526000", "174600.529000", "174600.531000", "174600.534000", "174600.536000", "174600.539000", "174600.541000", "174600.543000", "174600.546000", "174600.548000", "174600.551000", "174600.553000", "174600.556000", "174600.558000", "174600.561000", "174600.563000", "174640.503000", "174640.506000", "174640.509000", "174640.511000", "174640.514000", "174640.516000", "174640.519000", "174640.521000", "174640.524000", "174640.526000", "174640.528000", "174640.531000", "174640.533000", "174640.536000", "174640.538000", "174640.541000", "174640.543000", "174640.546000", "174640.548000", "174640.551000", "174640.553000", "174640.556000", "174640.558000", "174640.561000", "174640.563000", "174640.566000", "174640.568000", "174720.511000", "174720.514000", "174720.517000", "174720.519000", "174720.522000", "174720.524000", "174720.526000", "174720.529000", "174720.531000", "174720.534000", "174720.536000", "174720.539000", "174720.541000", "174720.544000", "174720.546000", "174720.549000", "174720.551000", "174720.554000", "174720.556000", "174720.559000", "174720.561000", "174720.564000", "174720.566000", "174720.569000", "174720.571000", "174720.574000", "174720.576000", "174800.515000", "174800.518000", "174800.520000", "174800.523000", "174800.525000", "174800.528000", "174800.530000", "174800.533000", "174800.535000", "174800.537000", "174800.540000", "174800.542000", "174800.545000", "174800.547000", "174800.550000", "174800.552000", "174800.555000", "174800.557000", "174800.560000", "174800.562000", "174800.565000", "174800.567000", "174800.570000", "174800.572000", "174800.575000", "174800.577000", "174800.580000", "174838.874000", "174838.877000", "174838.879000", "174838.882000", "174838.885000", "174838.887000", "174838.889000", "174838.892000", "174838.894000", "174838.897000", "174838.899000", "174838.902000", "174838.904000", "174838.907000", "174838.909000", "174838.912000", "174838.914000", "174838.917000", "174838.919000", "174838.922000", "174838.924000", "174838.927000", "174838.929000", "174838.932000", "174838.934000", "174838.937000"],
