{
  "AcquisitionMatrixPE": 104,
  "AcquisitionNumber": 1,
  "AcquisitionTime": "18:04:55.927500",
  "BandwidthPerPixelPhaseEncode": 17.17,
  "BaseResolution": 104,
  "BodyPartExamined": "BRAIN",
  "CoilCombinationMethod": "Sum of Squares",
  "ConsistencyInfo": "N4_VE11C_LATEST_20160120",
  "ConversionSoftware": "dcm2niix",
  "ConversionSoftwareVersion": "v1.0.20211006",
  "DerivedVendorReportedEchoSpacing": 0.000560011,
  "DeviceSerialNumber": "167006",
  "DwellTime": 2.1e-06,
  "EchoTime": 0.037,
  "EchoTrainLength": 104,
  "EffectiveEchoSpacing": 0.000560011,
  "FlipAngle": 52,
  "HeudiconvVersion": "0.10.0",
  "ImageComments": "Unaliased MB4/PE3/LB",
  "ImageOrientationPatientDICOM": [0.998606, -0.0179248, 0.0496423, 0.0408065, 0.858735, -0.510793],
  "ImageOrientationText": "Tra>Cor(-30.8)>Sag(1.9)",
  "ImageType": [
    "ORIGINAL",
    "PRIMARY",
    "M",
    "MB",
    "ND",
    "MOSAIC"
],
  "ImagingFrequency": 123.259,
  "InPlanePhaseEncodingDirectionDICOM": "COL",
  "InstitutionAddress": "Chemin Queen-Mary 4565,Montreal,District,CA,H3W 1W5",
  "InstitutionName": "IUGM",
  "InstitutionalDepartmentName": "Department",
  "MRAcquisitionType": "2D",
  "MagneticFieldStrength": 3,
  "Manufacturer": "Siemens",
  "ManufacturersModelName": "Prisma_fit",
  "MatrixCoilMode": "SENSE",
  "Modality": "MR",
  "MultibandAccelerationFactor": 4,
  "PartialFourier": 1,
  "PatientPosition": "HFS",
  "PercentPhaseFOV": 100,
  "PercentSampling": 100,
  "PhaseEncodingDirection": "j",
  "PhaseEncodingSteps": 104,
  "PhaseResolution": 1,
  "PixelBandwidth": 2290,
  "ProcedureStepDescription": "games^mario",
  "ProtocolName": "func_task-mario_run-05",
  "PulseSequenceDetails": "%CustomerSeq%\\cmrr_mbep2d_bold",
  "ReceiveCoilActiveElements": "HC1-7;NC1,2",
  "ReceiveCoilName": "HeadNeck_64",
  "ReconMatrixPE": 104,
  "RepetitionTime": 1.49,
  "SAR": 0.0507186,
  "ScanOptions": "FS",
  "ScanningSequence": "EP",
  "SequenceName": "epfid2d1_104",
  "SequenceVariant": "SK\\SS",
  "SeriesDescription": "func_task-mario_run-05",
  "SeriesNumber": 22,
  "ShimSetting": [623, -7179, -8881, 221, -2, -178, 25, -15],
  "SliceThickness": 2,
  "SliceTiming": [0, 0.785, 0.1, 0.8825, 0.1975, 0.98, 0.295, 1.08, 0.3925, 1.1775, 0.49, 1.275, 0.59, 1.3725, 0.6875, 0, 0.785, 0.1, 0.8825, 0.1975, 0.98, 0.295, 1.08, 0.3925, 1.1775, 0.49, 1.275, 0.59, 1.3725, 0.6875, 0, 0.785, 0.1, 0.8825, 0.1975, 0.98, 0.295, 1.08, 0.3925, 1.1775, 0.49, 1.275, 0.59, 1.3725, 0.6875, 0, 0.785, 0.1, 0.8825, 0.1975, 0.98, 0.295, 1.08, 0.3925, 1.1775, 0.49, 1.275, 0.59, 1.3725, 0.6875],
  "SoftwareVersions": "syngo MR E11",
  "SpacingBetweenSlices": 2,
  "StationName": "MRC35049",
  "TaskName": "mario",
  "TotalReadoutTime": 0.0576811,
  "TxRefAmp": 271.408,
  "WipMemBlock": "b8f1347b-0373-4b94-9c16-d56be397271a||Sequence: R016 ve11c/master r/e634e98; Dec 19 2017 11:00:25 by eja",
  "dcmmeta_affine": [
    [-1.9972124099731445, 0.08161290735006332, 0.06694737821817398, 101.23307037353516],
    [0.035849589854478836, 1.717469334602356, -1.0242136716842651, -52.254146575927734],
    [0.09928455948829651, 1.0215861797332764, 1.716538429260254, -104.86730194091797],
    [0.0, 0.0, 0.0, 1.0]
],
  "dcmmeta_reorient_transform": [
    [0.0, -1.0, 0.0, 103.0],
    [1.0, 0.0, 0.0, 0.0],
    [0.0, 0.0, 1.0, 0.0],
    [0.0, 0.0, 0.0, 1.0]
],
  "dcmmeta_shape": [104, 104, 60, 418],
  "dcmmeta_slice_dim": 2,
  "dcmmeta_version": 0.6,
  "global": {
    "const": {
      "AcquisitionMatrix": [104, 0, 0, 104],
      "AngioFlag": "N",
      "BitsAllocated": 16,
      "BitsStored": 16,
      "BodyPartExamined": "BRAIN",
      "Columns": 832,
      "EchoNumbers": 1,
      "EchoTime": 37.0,
      "EchoTrainLength": 104,
      "FlipAngle": 52.0,
      "HighBit": 15,
      "ImageOrientationPatient": [0.9986062015049, -0.0179247947388, 0.04964228086542, 0.04080645212472, 0.85873469309141, -0.5107930699865],
      "ImagePositionPatient": [-866.33160959246, -736.75480512539, 336.07384555628],
      "ImageType": [
        "ORIGINAL",
        "PRIMARY",
        "M",
        "MB",
        "ND",
        "MOSAIC"
],
      "ImagedNucleus": "1H",
      "ImagingFrequency": 123.258893,
      "InPlanePhaseEncodingDirection": "COL",
      "MRAcquisitionType": "2D",
      "MagneticFieldStrength": 3.0,
      "Manufacturer": "SIEMENS",
      "ManufacturerModelName": "Prisma_fit",
      "Modality": "MR",
      "NumberOfAverages": 1.0,
      "NumberOfPhaseEncodingSteps": 104,
      "PercentPhaseFieldOfView": 100.0,
      "PercentSampling": 100.0,
      "PerformedProcedureStepStartTime": "170934.171000",
      "PhotometricInterpretation": "MONOCHROME2",
      "PixelBandwidth": 2290.0,
      "PixelRepresentation": 0,
      "PixelSpacing": [2.0, 2.0],
      "ProtocolName": "func_task-mario_run-05",
      "RepetitionTime": 1490.0,
      "Rows": 832,
      "SAR": 0.05071860497142,
      "SamplesPerPixel": 1,
      "ScanOptions": "FS",
      "ScanningSequence": "EP",
      "SequenceName": "epfid2d1_104",
      "SequenceVariant": [
        "SK",
        "SS"
],
      "SeriesDescription": "func_task-mario_run-05",
      "SeriesNumber": 22,
      "SeriesTime": "180612.277000",
      "SliceLocation": -59.85602749496,
      "SliceThickness": 2.0,
      "SmallestImagePixelValue": 0,
      "SoftwareVersions": "syngo MR E11",
      "SpacingBetweenSlices": 1.9999999679009,
      "SpecificCharacterSet": "ISO_IR 100",
      "StudyID": "1",
      "StudyTime": "170934.026000",
      "TransmitCoilName": "Body",
      "VariableFlipAngleFlag": "N",
      "WindowCenterWidthExplanation": "Algo1",
      "dBdt": 0.0},
    "slices": {}
  },
  "time": {
    "samples": {
      "AcquisitionNumber": [1, 2, 3, 4, 5, 6, 7, 8, 9, 10, 11, 12, 13, 14, 15, 16, 17, 18, 19, 20, 21, 22, 23, 24, 25, 26, 27, 28, 29, 30, 31, 32, 33, 34, 35, 36, 37, 38, 39, 40, 41, 42, 43, 44, 45, 46, 47, 48, 49, 50, 51, 52, 53, 54, 55, 56, 57, 58, 59, 60, 61, 62, 63, 64, 65, 66, 67, 68, 69, 70, 71, 72, 73, 74, 75, 76, 77, 78, 79, 80, 81, 82, 83, 84, 85, 86, 87, 88, 89, 90, 91, 92, 93, 94, 95, 96, 97, 98, 99, 100, 101, 102, 103, 104, 105, 106, 107, 108, 109, 110, 111, 112, 113, 114, 115, 116, 117, 118, 119, 120, 121, 122, 123, 124, 125, 126, 127, 128, 129, 130, 131, 132, 133, 134, 135, 136, 137, 138, 139, 140, 141, 142, 143, 144, 145, 146, 147, 148, 149, 150, 151, 152, 153, 154, 155, 156, 157, 158, 159, 160, 161, 162, 163, 164, 165, 166, 167, 168, 169, 170, 171, 172, 173, 174, 175, 176, 177, 178, 179, 180, 181, 182, 183, 184, 185, 186, 187, 188, 189, 190, 191, 192, 193, 194, 195, 196, 197, 198, 199, 200, 201, 202, 203, 204, 205, 206, 207, 208, 209, 210, 211, 212, 213, 214, 215, 216, 217, 218, 219, 220, 221, 222, 223, 224, 225, 226, 227, 228, 229, 230, 231, 232, 233, 234, 235, 236, 237, 238, 239, 240, 241, 242, 243, 244, 245, 246, 247, 248, 249, 250, 251, 252, 253, 254, 255, 256, 257, 258, 259, 260, 261, 262, 263, 264, 265, 266, 267, 268, 269, 270, 271, 272, 273, 274, 275, 276, 277, 278, 279, 280, 281, 282, 283, 284, 285, 286, 287, 288, 289, 290, 291, 292, 293, 294, 295, 296, 297, 298, 299, 300, 301, 302, 303, 304, 305, 306, 307, 308, 309, 310, 311, 312, 313, 314, 315, 316, 317, 318, 319, 320, 321, 322, 323, 324, 325, 326, 327, 328, 329, 330, 331, 332, 333, 334, 335, 336, 337, 338, 339, 340, 341, 342, 343, 344, 345, 346, 347, 348, 349, 350, 351, 352, 353, 354, 355, 356, 357, 358, 359, 360, 361, 362, 363, 364, 365, 366, 367, 368, 369, 370, 371, 372, 373, 374, 375, 376, 377, 378, 379, 380, 381, 382, 383, 384, 385, 386, 387, 388, 389, 390, 391, 392, 393, 394, 395, 396, 397, 398, 399, 400, 401, 402, 403, 404, 405, 406, 407, 408, 409, 410, 411, 412, 413, 414, 415, 416, 417, 418],
      "AcquisitionTime": ["180455.927500", "180457.417500", "180458.907500", "180500.397500", "180501.887500", "180503.377500", "180504.867500", "180506.357500", "180507.847500", "180509.337500", "180510.827500", "180512.317500", "180513.807500", "180515.297500", "180516.787500", "180518.277500", "180519.767500", "180521.257500", "180522.747500", "180524.237500", "180525.727500", "180527.217500", "180528.707500", "180530.197500", "180531.687500", "180533.177500", "180534.667500", "180536.157500", "180537.647500", "180539.137500", "180540.627500", "180542.117500", "180543.607500", "180545.097500", "180546.587500", "180548.077500", "180549.567500", "180551.057500", "180552.547500", "180554.037500", "180555.527500", "180557.017500", "180558.507500", "180559.997500", "180601.487500", "180602.977500", "180604.467500", "180605.957500", "180607.447500", "180608.937500", "180610.427500", "180611.917500", "180613.407500", "180614.897500", "180616.387500", "180617.877500", "180619.367500", "180620.857500", "180622.347500", "180623.837500", "180625.327500", "180626.817500", "180628.307500", "180629.797500", "180631.287500", "180632.777500", "180634.267500", "180635.757500", "180637.247500", "180638.737500", "180640.227500", "180641.717500", "180643.207500", "180644.697500", "180646.187500", "180647.677500", "180649.167500", "180650.657500", "180652.147500", "180653.637500", "180655.127500", "180656.617500", "180658.107500", "180659.597500", "180701.087500", "180702.577500", "180704.067500", "180705.557500", "180707.047500", "180708.537500", "180710.027500", "180711.517500", "180713.007500", "180714.497500", "180715.987500", "180717.477500", "180718.967500", "180720.457500", "180721.947500", "180723.437500", "180724.927500", "180726.417500", "180727.907500", "180729.397500", "180730.887500", "180732.377500", "180733.867500", "180735.357500", "180736.847500", "180738.337500", "180739.827500", "180741.317500", "180742.807500", "180744.297500", "180745.787500", "180747.277500", "180748.767500", "180750.257500", "180751.747500", "180753.237500", "180754.727500", "180756.217500", "180757.707500", "180759.197500", "180800.687500", "180802.177500", "180803.667500", "180805.157500", "180806.647500", "180808.137500", "180809.627500", "180811.117500", "180812.607500", "180814.097500", "180815.587500", "180817.077500", "180818.567500", "180820.057500", "180821.547500", "180823.037500", "180824.527500", "180826.017500", "180827.507500", "180828.997500", "180830.487500", "180831.977500", "180833.467500", "180834.957500", "180836.447500", "180837.937500", "180839.427500", "180840.917500", "180842.407500", "180843.897500", "180845.387500", "180846.877500", "180848.367500", "180849.857500", "180851.347500", "180852.837500", "180854.327500", "180855.817500", "180857.307500", "180858.797500", "180900.287500", "180901.777500", "180903.267500", "180904.757500", "180906.247500", "180907.737500", "180909.227500", "180910.717500", "180912.207500", "180913.697500", "180915.187500", "180916.677500", "180918.167500", "180919.657500", "180921.147500", "180922.637500", "180924.127500", "180925.617500", "180927.107500", "180928.597500", "180930.087500", "180931.577500", "180933.067500", "180934.557500", "180936.047500", "180937.537500", "180939.027500", "180940.517500", "180942.007500", "180943.497500", "180944.987500", "180946.477500", "180947.967500", "180949.457500", "180950.947500", "180952.437500", "180953.927500", "180955.417500", "180956.907500", "180958.397500", "180959.887500", "181001.377500", "181002.867500", "181004.357500", "181005.847500", "181007.337500", "181008.827500", "181010.317500", "181011.807500", "181013.297500", "181014.787500", "181016.277500", "181017.767500", "181019.257500", "181020.747500", "181022.237500", "181023.727500", "181025.217500", "181026.707500", "181028.197500", "181029.687500", "181031.177500", "181032.667500", "181034.157500", "181035.647500", "181037.137500", "181038.627500", "181040.117500", "181041.607500", "181043.097500", "181044.587500", "181046.077500", "181047.567500", "181049.057500", "181050.547500", "181052.037500", "181053.527500", "181055.017500", "181056.507500", "181057.997500", "181059.487500", "181100.977500", "181102.467500", "181103.957500", "181105.447500", "181106.937500", "181108.427500", "181109.917500", "181111.407500", "181112.897500", "181114.387500", "181115.877500", "181117.367500", "181118.857500", "181120.347500", "181121.837500", "181123.327500", "181124.817500", "181126.307500", "181127.797500", "181129.287500", "181130.777500", "181132.267500", "181133.757500", "181135.247500", "181136.737500", "181138.227500", "181139.717500", "181141.207500", "181142.697500", "181144.187500", "181145.677500", "181147.167500", "181148.657500", "181150.147500", "181151.637500", "181153.127500", "181154.617500", "181156.107500", "181157.597500", "181159.087500", "181200.577500", "181202.067500", "181203.557500", "181205.047500", "181206.537500", "181208.027500", "181209.517500", "181211.007500", "181212.497500", "181213.987500", "181215.477500", "181216.967500", "181218.457500", "181219.947500", "181221.437500", "181222.927500", "181224.417500", "181225.907500", "181227.397500", "181228.887500", "181230.377500", "181231.867500", "181233.357500", "181234.847500", "181236.337500", "181237.827500", "181239.317500", "181240.807500", "181242.297500", "181243.787500", "181245.277500", "181246.767500", "181248.257500", "181249.747500", "181251.237500", "181252.727500", "181254.217500", "181255.707500", "181257.197500", "181258.687500", "181300.177500", "181301.667500", "181303.157500", "181304.647500", "181306.137500", "181307.627500", "181309.117500", "181310.607500", "181312.097500", "181313.587500", "181315.077500", "181316.567500", "181318.057500", "181319.547500", "181321.037500", "181322.527500", "181324.017500", "181325.507500", "181326.997500", "181328.487500", "181329.977500", "181331.467500", "181332.957500", "181334.447500", "181335.937500", "181337.427500", "181338.917500", "181340.407500", "181341.897500", "181343.387500", "181344.877500", "181346.367500", "181347.857500", "181349.347500", "181350.837500", "181352.327500", "181353.817500", "181355.307500", "181356.797500", "181358.287500", "181359.777500", "181401.267500", "181402.757500", "181404.247500", "181405.737500", "181407.227500", "181408.717500", "181410.207500", "181411.697500", "181413.187500", "181414.677500", "181416.167500", "181417.657500", "181419.147500", "181420.637500", "181422.127500", "181423.617500", "181425.107500", "181426.597500", "181428.087500", "181429.577500", "181431.067500", "181432.557500", "181434.047500", "181435.537500", "181437.027500", "181438.517500", "181440.007500", "181441.497500", "181442.987500", "181444.477500", "181445.967500", "181447.457500", "181448.947500", "181450.437500", "181451.927500", "181453.417500", "181454.907500", "181456.397500", "181457.887500", "181459.377500", "181500.867500", "181502.357500", "181503.847500", "181505.337500", "181506.827500", "181508.317500", "181509.807500", "181511.297500", "181512.787500", "181514.277500", "181515.767500", "181517.257500"],
      "ContentTime": ["180612.281000", "180612.284000", "180612.288000", "180612.291000", "180612.294000", "180612.297000", "180612.307000", "180612.310000", "180612.313000", "180612.317000", "180612.320000", "180612.323000", "180612.326000", "180612.330000", "180612.333000", "180612.336000", "180612.339000", "180612.343000", "180612.346000", "180612.349000", "180612.352000", "180612.356000", "180612.359000", "180632.234000", "180632.238000", "180632.241000", "180632.244000", "180632.247000", "180632.251000", "180632.254000", "180632.257000", "180632.260000", "180632.264000", "180632.267000", "180632.270000", "180632.273000", "180632.277000", "180632.280000", "180632.283000", "180632.287000", "180632.290000", "180632.293000", "180632.296000", "180652.234000", "180652.238000", "180652.241000", "180652.244000", "180652.248000", "180652.251000", "180652.254000", "180652.257000", "180652.261000", "180652.264000", "180652.267000", "180652.270000", "180652.274000", "180652.277000", "180652.280000", "180652.283000", "180652.287000", "180652.290000", "180652.293000", "180652.296000", "180712.235000", "180712.239000", "180712.255000", "180712.258000", "180712.261000", "180712.264000", "180712.268000", "180712.271000", "180712.274000", "180712.277000", "180712.281000", "180712.284000", "180712.287000", "180712.290000", "180712.294000", "180712.297000", "180712.300000", "180712.303000", "180712.307000", "180712.310000", "180732.235000", "180732.239000", "180732.242000", "180732.245000", "180732.249000", "180732.252000", "180732.255000", "180732.258000", "180732.262000", "180732.265000", "180732.268000", "180732.271000", "180732.275000", "180732.278000", "180732.281000", "180732.285000", "180732.288000", "180732.291000", "180732.294000", "180732.298000", "180732.301000", "180812.235000", "180812.239000", "180812.242000", "180812.245000", "180812.249000", "180812.252000", "180812.255000", "180812.258000", "180812.262000", "180812.265000", "180812.268000", "180812.271000", "180812.275000", "180812.278000", "180812.281000", "180812.284000", "180812.288000", "180812.291000", "180812.294000", "180812.298000", "180812.301000", "180812.304000", "180812.307000", "180812.311000", "180812.314000", "180812.317000", "180812.320000", "180852.234000", "180852.238000", "180852.241000", "180852.244000", "180852.248000", "180852.251000", "180852.254000", "180852.258000", "180852.261000", "180852.264000", "180852.267000", "180852.271000", "180852.274000", "180852.277000", "180852.280000", "180852.284000", "180852.287000", "180852.290000", "180852.294000", "180852.297000", "180852.300000", "180852.303000", "180852.306000", "180852.310000", "180852.313000", "180852.316000", "180852.320000", "180932.235000", "180932.239000", "180932.242000", "180932.245000", "180932.249000", "180932.252000", "180932.255000", "180932.259000", "180932.276000", "180932.279000", "180932.282000", "180932.286000", "180932.289000", "180932.292000", "180932.295000", "180932.299000", "180932.302000", "180932.305000", "180932.309000", "180932.312000", "180932.315000", "180932.318000", "180932.322000", "180932.325000", "180932.328000", "180932.332000", "180932.335000", "181012.235000", "181012.239000", "181012.242000", "181012.245000", "181012.249000", "181012.252000", "181012.255000", "181012.259000", "181012.262000", "181012.265000", "181012.269000", "181012.272000", "181012.275000", "181012.278000", "181012.282000", "181012.285000", "181012.288000", "181012.291000", "181012.296000", "181012.299000", "181012.302000", "181012.306000", "181012.309000", "181012.312000", "181012.315000", "181012.319000", "181052.235000", "181052.239000", "181052.242000", "181052.245000", "181052.249000", "181052.252000", "181052.255000", "181052.259000", "181052.262000", "181052.265000", "181052.269000", "181052.272000", "181052.275000", "181052.278000", "181052.282000", "181052.285000", "181052.288000", "181052.292000", "181052.295000", "181052.298000", "181052.302000", "181052.305000", "181052.308000", "181052.311000", "181052.315000", "181052.318000", "181052.321000", "181132.234000", "181132.238000", "181132.241000", "181132.245000", "181132.248000", "181132.251000", "181132.254000", "181132.258000", "181132.261000", "181132.264000", "181132.268000", "181132.271000", "181132.274000", "181132.278000", "181132.281000", "181132.284000", "181132.288000", "181132.291000", "181132.294000", "181132.297000", "181132.301000", "181132.304000", "181132.307000", "181132.310000", "181132.314000", "181132.317000", "181132.321000", "181212.235000", "181212.239000", "181212.242000", "181212.246000", "181212.249000", "181212.252000", "181212.255000", "181212.259000", "181212.262000", "181212.265000", "181212.269000", "181212.272000", "181212.275000", "181212.279000", "181212.287000", "181212.290000", "181212.294000", "181212.297000", "181212.300000", "181212.304000", "181212.307000", "181212.310000", "181212.313000", "181212.317000", "181212.320000", "181212.323000", "181212.327000", "181252.235000", "181252.239000", "181252.242000", "181252.246000", "181252.249000", "181252.252000", "181252.255000", "181252.259000", "181252.262000", "181252.265000", "181252.269000", "181252.272000", "181252.275000", "181252.278000", "181252.282000", "181252.285000", "181252.288000", "181252.292000", "181252.295000", "181252.298000", "181252.302000", "181252.305000", "181252.308000", "181252.311000", "181252.315000", "181252.318000", "181252.321000", "181332.234000", "181332.238000", "181332.241000", "181332.244000", "181332.248000", "181332.251000", "181332.254000", "181332.258000", "181332.261000", "181332.264000", "181332.268000", "181332.271000", "181332.274000", "181332.278000", "181332.281000", "181332.284000", "181332.288000", "181332.291000", "181332.294000", "181332.297000", "181332.301000", "181332.304000", "181332.307000", "181332.311000", "181332.314000", "181332.317000", "181332.321000", "181412.236000", "181412.239000", "181412.242000", "181412.246000", "181412.249000", "181412.252000", "181412.256000", "181412.274000", "181412.277000", "181412.280000", "181412.283000", "181412.287000", "181412.290000", "181412.293000", "181412.296000", "181412.301000", "181412.304000", "181412.307000", "181412.313000", "181412.316000", "181412.320000", "181412.323000", "181412.328000", "181412.331000", "181412.334000", "181412.337000", "181452.235000", "181452.239000", "181452.242000", "181452.245000", "181452.249000", "181452.252000", "181452.255000", "181452.259000", "181452.262000", "181452.265000", "181452.268000", "181452.272000", "181452.275000", "181452.278000", "181452.281000", "181452.285000", "181452.288000", "181452.291000", "181452.295000", "181452.298000", "181452.301000", "181452.304000", "181452.308000", "181452.311000", "181452.314000", "181452.318000", "181452.321000", "181519.780000", "181519.784000", "181519.787000", "181519.790000", "181519.793000", "181519.797000", "181519.800000", "181519.803000", "181519.807000", "181519.810000", "181519.813000", "181519.816000", "181519.820000", "181519.823000", "181519.826000", "181519.829000", "181519.833000", "181519.836000", "181519.839000"],
      "InstanceCreationTime": ["180612.281000", "180612.284000", "180612.288000", "180612.291000", "180612.294000", "180612.297000", "180612.307000", "180612.310000", "180612.313000", "180612.317000", "180612.320000", "180612.323000", "180612.326000", "180612.330000", "180612.333000", "180612.336000", "180612.339000", "180612.343000", "180612.346000", "180612.349000", "180612.352000", "180612.356000", "180612.359000", "180632.234000", "180632.238000", "180632.241000", "180632.244000", "180632.247000", "180632.251000", "180632.254000", "180632.257000", "180632.260000", "180632.264000", "180632.267000", "180632.270000", "180632.273000", "180632.277000", "180632.280000", "180632.283000", "180632.287000", "180632.290000", "180632.293000", "180632.296000", "180652.234000", "180652.238000", "180652.241000", "180652.244000", "180652.248000", "180652.251000", "180652.254000", "180652.257000", "180652.261000", "180652.264000", "180652.267000", "180652.270000", "180652.274000", "180652.277000", "180652.280000", "180652.283000", "180652.287000", "180652.290000", "180652.293000", "180652.296000", "180712.235000", "180712.239000", "180712.255000", "180712.258000", "180712.261000", "180712.264000", "180712.268000", "180712.271000", "180712.274000", "180712.277000", "180712.281000", "180712.284000", "180712.287000", "180712.290000", "180712.294000", "180712.297000", "180712.300000", "180712.303000", "180712.307000", "180712.310000", "180732.235000", "180732.239000", "180732.242000", "180732.245000", "180732.249000", "180732.252000", "180732.255000", "180732.258000", "180732.262000", "180732.265000", "180732.268000", "180732.271000", "180732.275000", "180732.278000", "180732.281000", "180732.285000", "180732.288000", "180732.291000", "180732.294000", "180732.298000", "180732.301000", "180812.235000", "180812.239000", "180812.242000", "180812.245000", "180812.249000", "180812.252000", "180812.255000", "180812.258000", "180812.262000", "180812.265000", "180812.268000", "180812.271000", "180812.275000", "180812.278000", "180812.281000", "180812.284000", "180812.288000", "180812.291000", "180812.294000", "180812.298000", "180812.301000", "180812.304000", "180812.307000", "180812.311000", "180812.314000", "180812.317000", "180812.320000", "180852.234000", "180852.238000", "180852.241000", "180852.244000", "180852.248000", "180852.251000", "180852.254000", "180852.258000", "180852.261000", "180852.264000", "180852.267000", "180852.271000", "180852.274000", "180852.277000", "180852.280000", "180852.284000", "180852.287000", "180852.290000", "180852.294000", "180852.297000", "180852.300000", "180852.303000", "180852.306000", "180852.310000", "180852.313000", "180852.316000", "180852.320000", "180932.235000", "180932.239000", "180932.242000", "180932.245000", "180932.249000", "180932.252000", "180932.255000", "180932.259000", "180932.276000", "180932.279000", "180932.282000", "180932.286000", "180932.289000", "180932.292000", "180932.295000", "180932.299000", "180932.302000", "180932.305000", "180932.309000", "180932.312000", "180932.315000", "180932.318000", "180932.322000", "180932.325000", "180932.328000", "180932.332000", "180932.335000", "181012.235000", "181012.239000", "181012.242000", "181012.245000", "181012.249000", "181012.252000", "181012.255000", "181012.259000", "181012.262000", "181012.265000", "181012.269000", "181012.272000", "181012.275000", "181012.278000", "181012.282000", "181012.285000", "181012.288000", "181012.291000", "181012.296000", "181012.299000", "181012.302000", "181012.306000", "181012.309000", "181012.312000", "181012.315000", "181012.319000", "181052.235000", "181052.239000", "181052.242000", "181052.245000", "181052.249000", "181052.252000", "181052.255000", "181052.259000", "181052.262000", "181052.265000", "181052.269000", "181052.272000", "181052.275000", "181052.278000", "181052.282000", "181052.285000", "181052.288000", "181052.292000", "181052.295000", "181052.298000", "181052.302000", "181052.305000", "181052.308000", "181052.311000", "181052.315000", "181052.318000", "181052.321000", "181132.234000", "181132.238000", "181132.241000", "181132.245000", "181132.248000", "181132.251000", "181132.254000", "181132.258000", "181132.261000", "181132.264000", "181132.268000", "181132.271000", "181132.274000", "181132.278000", "181132.281000", "181132.284000", "181132.288000", "181132.291000", "181132.294000", "181132.297000", "181132.301000", "181132.304000", "181132.307000", "181132.310000", "181132.314000", "181132.317000", "181132.321000", "181212.235000", "181212.239000", "181212.242000", "181212.246000", "181212.249000", "181212.252000", "181212.255000", "181212.259000", "181212.262000", "181212.265000", "181212.269000", "181212.272000", "181212.275000", "181212.279000", "181212.287000", "181212.290000", "181212.294000", "181212.297000", "181212.300000", "181212.304000", "181212.307000", "181212.310000", "181212.313000", "181212.317000", "181212.320000", "181212.323000", "181212.327000", "181252.235000", "181252.239000", "181252.242000", "181252.246000", "181252.249000", "181252.252000", "181252.255000", "181252.259000", "181252.262000", "181252.265000", "181252.269000", "181252.272000", "181252.275000", "181252.278000", "181252.282000", "181252.285000", "181252.288000", "181252.292000", "181252.295000", "181252.298000", "181252.302000", "181252.305000", "181252.308000", "181252.311000", "181252.315000", "181252.318000", "181252.321000", "181332.234000", "181332.238000", "181332.241000", "181332.244000", "181332.248000", "181332.251000", "181332.254000", "181332.258000", "181332.261000", "181332.264000", "181332.268000", "181332.271000", "181332.274000", "181332.278000", "181332.281000", "181332.284000", "181332.288000", "181332.291000", "181332.294000", "181332.297000", "181332.301000", "181332.304000", "181332.307000", "181332.311000", "181332.314000", "181332.317000", "181332.321000", "181412.236000", "181412.239000", "181412.242000", "181412.246000", "181412.249000", "181412.252000", "181412.256000", "181412.274000", "181412.277000", "181412.280000", "181412.283000", "181412.287000", "181412.290000", "181412.293000", "181412.296000", "181412.301000", "181412.304000", "181412.307000", "181412.313000", "181412.316000", "181412.320000", "181412.323000", "181412.328000", "181412.331000", "181412.334000", "181412.337000", "181452.235000", "181452.239000", "181452.242000", "181452.245000", "181452.249000", "181452.252000", "181452.255000", "181452.259000", "181452.262000", "181452.265000", "181452.268000", "181452.272000", "181452.275000", "181452.278000", "181452.281000", "181452.285000", "181452.288000", "181452.291000", "181452.295000", "181452.298000", "181452.301000", "181452.304000", "181452.308000", "181452.311000", "181452.314000", "181452.318000", "181452.321000", "181519.780000", "181519.784000", "181519.787000", "181519.790000", "181519.793000", "181519.797000", "181519.800000", "181519.803000", "181519.807000", "181519.810000", "181519.813000", "181519.816000", "181519.820000", "181519.823000", "181519.826000", "181519.829000", "181519.833000", "181519.836000", "181519.839000"],
