{
  "AcquisitionMatrixPE": 104,
  "AcquisitionNumber": 1,
  "AcquisitionTime": "17:24:45.165000",
  "BandwidthPerPixelPhaseEncode": 17.17,
  "BaseResolution": 104,
  "BodyPartExamined": "BRAIN",
  "CoilCombinationMethod": "Sum of Squares",
  "ConsistencyInfo": "N4_VE11C_LATEST_20160120",
  "ConversionSoftware": "dcm2niix",
  "ConversionSoftwareVersion": "v1.0.20211006",
  "DerivedVendorReportedEchoSpacing": 0.000560011,
  "DeviceSerialNumber": "167006",
  "DwellTime": 2.1e-06,
  "EchoTime": 0.037,
  "EchoTime1": 0.037,
  "EchoTime2": 0.001,
  "EchoTrainLength": 104,
  "EffectiveEchoSpacing": 0.000560011,
  "FlipAngle": 52,
  "HeudiconvVersion": "0.10.0",
  "ImageComments": "Unaliased MB4/PE3/LB",
  "ImageOrientationPatientDICOM": [0.998606, -0.0179248, 0.0496423, 0.0408065, 0.858735, -0.510793],
  "ImageOrientationText": "Tra>Cor(-30.8)>Sag(1.9)",
  "ImageType": [
    "ORIGINAL",
    "PRIMARY",
    "P",
    "MB",
    "ND",
    "MOSAIC",
    "PHASE"
],
  "ImagingFrequency": 123.259,
  "InPlanePhaseEncodingDirectionDICOM": "COL",
  "InstitutionAddress": "Chemin Queen-Mary 4565,Montreal,District,CA,H3W 1W5",
  "InstitutionName": "IUGM",
  "InstitutionalDepartmentName": "Department",
  "MRAcquisitionType": "2D",
  "MagneticFieldStrength": 3,
  "Manufacturer": "Siemens",
  "ManufacturersModelName": "Prisma_fit",
  "MatrixCoilMode": "SENSE",
  "Modality": "MR",
  "MultibandAccelerationFactor": 4,
  "PartialFourier": 1,
  "PatientPosition": "HFS",
  "PercentPhaseFOV": 100,
  "PercentSampling": 100,
  "PhaseEncodingDirection": "j",
  "PhaseEncodingSteps": 104,
  "PhaseResolution": 1,
  "PixelBandwidth": 2290,
  "ProcedureStepDescription": "games^mario",
  "ProtocolName": "func_task-mario_run-02",
  "PulseSequenceDetails": "%CustomerSeq%\\cmrr_mbep2d_bold",
  "ReceiveCoilActiveElements": "HC1-7;NC1,2",
  "ReceiveCoilName": "HeadNeck_64",
  "ReconMatrixPE": 104,
  "RepetitionTime": 1.49,
  "SAR": 0.0507186,
  "ScanOptions": "FS",
  "ScanningSequence": "EP",
  "SequenceName": "epfid2d1_104",
  "SequenceVariant": "SK\\SS",
  "SeriesDescription": "func_task-mario_run-02",
  "SeriesNumber": 14,
  "ShimSetting": [623, -7179, -8881, 221, -2, -178, 25, -15],
  "SliceThickness": 2,
  "SliceTiming": [0, 0.7825, 0.0975, 0.88, 0.195, 0.98, 0.2925, 1.0775, 0.39, 1.175, 0.49, 1.2725, 0.5875, 1.37, 0.685, 0, 0.7825, 0.0975, 0.88, 0.195, 0.98, 0.2925, 1.0775, 0.39, 1.175, 0.49, 1.2725, 0.5875, 1.37, 0.685, 0, 0.7825, 0.0975, 0.88, 0.195, 0.98, 0.2925, 1.0775, 0.39, 1.175, 0.49, 1.2725, 0.5875, 1.37, 0.685, 0, 0.7825, 0.0975, 0.88, 0.195, 0.98, 0.2925, 1.0775, 0.39, 1.175, 0.49, 1.2725, 0.5875, 1.37, 0.685],
  "SoftwareVersions": "syngo MR E11",
  "SpacingBetweenSlices": 2,
  "StationName": "MRC35049",
  "TaskName": "mario",
  "TotalReadoutTime": 0.0576811,
  "TxRefAmp": 271.408,
  "WipMemBlock": "4d6f181a-91d6-4e84-932d-124d541c323c||Sequence: R016 ve11c/master r/e634e98; Dec 19 2017 11:00:25 by eja",
  "dcmmeta_affine": [
    [-1.9972124099731445, 0.08161290735006332, 0.06694737821817398, 101.23307037353516],
    [0.035849589854478836, 1.717469334602356, -1.0242136716842651, -52.254146575927734],
    [0.09928455948829651, 1.0215861797332764, 1.716538429260254, -104.86730194091797],
    [0.0, 0.0, 0.0, 1.0]
],
  "dcmmeta_reorient_transform": [
    [0.0, -1.0, 0.0, 103.0],
    [1.0, 0.0, 0.0, 0.0],
    [0.0, 0.0, 1.0, 0.0],
    [0.0, 0.0, 0.0, 1.0]
],
  "dcmmeta_shape": [104, 104, 60, 420],
  "dcmmeta_slice_dim": 2,
  "dcmmeta_version": 0.6,
  "global": {
    "const": {
      "AcquisitionMatrix": [104, 0, 0, 104],
      "AngioFlag": "N",
      "BitsAllocated": 16,
      "BitsStored": 16,
      "BodyPartExamined": "BRAIN",
      "Columns": 832,
      "EchoNumbers": 1,
      "EchoTime": 37.0,
      "EchoTrainLength": 104,
      "FlipAngle": 52.0,
      "HighBit": 15,
      "ImageOrientationPatient": [0.9986062015049, -0.0179247947388, 0.04964228086542, 0.04080645212472, 0.85873469309141, -0.5107930699865],
      "ImagePositionPatient": [-866.33160959246, -736.75480512539, 336.07384555628],
      "ImageType": [
        "ORIGINAL",
        "PRIMARY",
        "P",
        "MB",
        "ND",
        "MOSAIC"
],
      "ImagedNucleus": "1H",
      "ImagingFrequency": 123.258879,
      "InPlanePhaseEncodingDirection": "COL",
      "LargestImagePixelValue": 4095,
      "MRAcquisitionType": "2D",
      "MagneticFieldStrength": 3.0,
      "Manufacturer": "SIEMENS",
      "ManufacturerModelName": "Prisma_fit",
      "Modality": "MR",
      "NumberOfAverages": 1.0,
      "NumberOfPhaseEncodingSteps": 104,
      "PercentPhaseFieldOfView": 100.0,
      "PercentSampling": 100.0,
      "PerformedProcedureStepStartTime": "170934.171000",
      "PhotometricInterpretation": "MONOCHROME2",
      "PixelBandwidth": 2290.0,
      "PixelRepresentation": 0,
      "PixelSpacing": [2.0, 2.0],
      "ProtocolName": "func_task-mario_run-02",
      "RepetitionTime": 1490.0,
      "RescaleIntercept": -4096.0,
      "RescaleSlope": 2.0,
      "RescaleType": "US",
      "Rows": 832,
      "SAR": 0.05071860497142,
      "SamplesPerPixel": 1,
      "ScanOptions": "FS",
      "ScanningSequence": "EP",
      "SequenceName": "epfid2d1_104",
      "SequenceVariant": [
        "SK",
        "SS"
],
      "SeriesDescription": "func_task-mario_run-02",
      "SeriesNumber": 14,
      "SeriesTime": "172612.421000",
      "SliceLocation": -59.85602749496,
      "SliceThickness": 2.0,
      "SmallestImagePixelValue": 0,
      "SoftwareVersions": "syngo MR E11",
      "SpacingBetweenSlices": 1.9999999679009,
      "SpecificCharacterSet": "ISO_IR 100",
      "StudyID": "1",
      "StudyTime": "170934.026000",
      "TransmitCoilName": "Body",
      "VariableFlipAngleFlag": "N",
      "WindowCenterWidthExplanation": "Algo1",
      "dBdt": 0.0},
    "slices": {}
  },
  "time": {
    "samples": {
      "AcquisitionNumber": [1, 2, 3, 4, 5, 6, 7, 8, 9, 10, 11, 12, 13, 14, 15, 16, 17, 18, 19, 20, 21, 22, 23, 24, 25, 26, 27, 28, 29, 30, 31, 32, 33, 34, 35, 36, 37, 38, 39, 40, 41, 42, 43, 44, 45, 46, 47, 48, 49, 50, 51, 52, 53, 54, 55, 56, 57, 58, 59, 60, 61, 62, 63, 64, 65, 66, 67, 68, 69, 70, 71, 72, 73, 74, 75, 76, 77, 78, 79, 80, 81, 82, 83, 84, 85, 86, 87, 88, 89, 90, 91, 92, 93, 94, 95, 96, 97, 98, 99, 100, 101, 102, 103, 104, 105, 106, 107, 108, 109, 110, 111, 112, 113, 114, 115, 116, 117, 118, 119, 120, 121, 122, 123, 124, 125, 126, 127, 128, 129, 130, 131, 132, 133, 134, 135, 136, 137, 138, 139, 140, 141, 142, 143, 144, 145, 146, 147, 148, 149, 150, 151, 152, 153, 154, 155, 156, 157, 158, 159, 160, 161, 162, 163, 164, 165, 166, 167, 168, 169, 170, 171, 172, 173, 174, 175, 176, 177, 178, 179, 180, 181, 182, 183, 184, 185, 186, 187, 188, 189, 190, 191, 192, 193, 194, 195, 196, 197, 198, 199, 200, 201, 202, 203, 204, 205, 206, 207, 208, 209, 210, 211, 212, 213, 214, 215, 216, 217, 218, 219, 220, 221, 222, 223, 224, 225, 226, 227, 228, 229, 230, 231, 232, 233, 234, 235, 236, 237, 238, 239, 240, 241, 242, 243, 244, 245, 246, 247, 248, 249, 250, 251, 252, 253, 254, 255, 256, 257, 258, 259, 260, 261, 262, 263, 264, 265, 266, 267, 268, 269, 270, 271, 272, 273, 274, 275, 276, 277, 278, 279, 280, 281, 282, 283, 284, 285, 286, 287, 288, 289, 290, 291, 292, 293, 294, 295, 296, 297, 298, 299, 300, 301, 302, 303, 304, 305, 306, 307, 308, 309, 310, 311, 312, 313, 314, 315, 316, 317, 318, 319, 320, 321, 322, 323, 324, 325, 326, 327, 328, 329, 330, 331, 332, 333, 334, 335, 336, 337, 338, 339, 340, 341, 342, 343, 344, 345, 346, 347, 348, 349, 350, 351, 352, 353, 354, 355, 356, 357, 358, 359, 360, 361, 362, 363, 364, 365, 366, 367, 368, 369, 370, 371, 372, 373, 374, 375, 376, 377, 378, 379, 380, 381, 382, 383, 384, 385, 386, 387, 388, 389, 390, 391, 392, 393, 394, 395, 396, 397, 398, 399, 400, 401, 402, 403, 404, 405, 406, 407, 408, 409, 410, 411, 412, 413, 414, 415, 416, 417, 418, 419, 420],
      "AcquisitionTime": ["172445.165000", "172446.655000", "172448.145000", "172449.635000", "172451.125000", "172452.615000", "172454.105000", "172455.595000", "172457.085000", "172458.575000", "172500.065000", "172501.555000", "172503.045000", "172504.535000", "172506.025000", "172507.515000", "172509.005000", "172510.495000", "172511.985000", "172513.475000", "172514.965000", "172516.455000", "172517.945000", "172519.435000", "172520.925000", "172522.415000", "172523.905000", "172525.395000", "172526.885000", "172528.375000", "172529.865000", "172531.355000", "172532.845000", "172534.335000", "172535.825000", "172537.315000", "172538.805000", "172540.295000", "172541.785000", "172543.275000", "172544.765000", "172546.255000", "172547.745000", "172549.235000", "172550.725000", "172552.215000", "172553.705000", "172555.195000", "172556.685000", "172558.175000", "172559.665000", "172601.155000", "172602.645000", "172604.135000", "172605.625000", "172607.115000", "172608.605000", "172610.095000", "172611.585000", "172613.075000", "172614.565000", "172616.055000", "172617.545000", "172619.035000", "172620.525000", "172622.015000", "172623.505000", "172624.995000", "172626.485000", "172627.975000", "172629.465000", "172630.955000", "172632.445000", "172633.935000", "172635.425000", "172636.915000", "172638.405000", "172639.895000", "172641.385000", "172642.875000", "172644.365000", "172645.855000", "172647.345000", "172648.835000", "172650.325000", "172651.815000", "172653.305000", "172654.795000", "172656.285000", "172657.775000", "172659.265000", "172700.755000", "172702.245000", "172703.735000", "172705.225000", "172706.715000", "172708.205000", "172709.695000", "172711.185000", "172712.675000", "172714.165000", "172715.655000", "172717.145000", "172718.635000", "172720.125000", "172721.615000", "172723.105000", "172724.595000", "172726.085000", "172727.575000", "172729.065000", "172730.555000", "172732.045000", "172733.535000", "172735.025000", "172736.515000", "172738.005000", "172739.495000", "172740.985000", "172742.475000", "172743.965000", "172745.455000", "172746.945000", "172748.435000", "172749.925000", "172751.415000", "172752.905000", "172754.395000", "172755.885000", "172757.375000", "172758.865000", "172800.355000", "172801.845000", "172803.335000", "172804.825000", "172806.315000", "172807.805000", "172809.295000", "172810.785000", "172812.275000", "172813.765000", "172815.255000", "172816.745000", "172818.235000", "172819.725000", "172821.215000", "172822.705000", "172824.195000", "172825.685000", "172827.175000", "172828.665000", "172830.155000", "172831.645000", "172833.135000", "172834.625000", "172836.115000", "172837.605000", "172839.095000", "172840.585000", "172842.075000", "172843.565000", "172845.055000", "172846.545000", "172848.035000", "172849.525000", "172851.015000", "172852.505000", "172853.995000", "172855.485000", "172856.975000", "172858.465000", "172859.955000", "172901.445000", "172902.935000", "172904.425000", "172905.915000", "172907.405000", "172908.895000", "172910.385000", "172911.875000", "172913.365000", "172914.855000", "172916.345000", "172917.835000", "172919.325000", "172920.815000", "172922.305000", "172923.795000", "172925.285000", "172926.775000", "172928.265000", "172929.755000", "172931.245000", "172932.735000", "172934.225000", "172935.715000", "172937.205000", "172938.695000", "172940.185000", "172941.675000", "172943.165000", "172944.655000", "172946.145000", "172947.635000", "172949.125000", "172950.615000", "172952.105000", "172953.595000", "172955.085000", "172956.575000", "172958.065000", "172959.555000", "173001.045000", "173002.535000", "173004.025000", "173005.515000", "173007.005000", "173008.495000", "173009.985000", "173011.475000", "173012.965000", "173014.455000", "173015.945000", "173017.435000", "173018.925000", "173020.415000", "173021.905000", "173023.395000", "173024.885000", "173026.375000", "173027.865000", "173029.355000", "173030.845000", "173032.335000", "173033.825000", "173035.315000", "173036.805000", "173038.295000", "173039.785000", "173041.275000", "173042.765000", "173044.255000", "173045.745000", "173047.235000", "173048.725000", "173050.215000", "173051.705000", "173053.195000", "173054.685000", "173056.175000", "173057.665000", "173059.155000", "173100.645000", "173102.135000", "173103.625000", "173105.115000", "173106.605000", "173108.095000", "173109.585000", "173111.075000", "173112.565000", "173114.055000", "173115.545000", "173117.035000", "173118.525000", "173120.015000", "173121.505000", "173122.995000", "173124.485000", "173125.975000", "173127.465000", "173128.955000", "173130.445000", "173131.935000", "173133.425000", "173134.915000", "173136.405000", "173137.895000", "173139.385000", "173140.875000", "173142.365000", "173143.855000", "173145.345000", "173146.835000", "173148.325000", "173149.815000", "173151.305000", "173152.795000", "173154.285000", "173155.775000", "173157.265000", "173158.755000", "173200.245000", "173201.735000", "173203.225000", "173204.715000", "173206.205000", "173207.695000", "173209.185000", "173210.675000", "173212.165000", "173213.655000", "173215.145000", "173216.635000", "173218.125000", "173219.615000", "173221.105000", "173222.595000", "173224.085000", "173225.575000", "173227.065000", "173228.555000", "173230.045000", "173231.535000", "173233.025000", "173234.515000", "173236.005000", "173237.495000", "173238.985000", "173240.475000", "173241.965000", "173243.455000", "173244.945000", "173246.435000", "173247.925000", "173249.415000", "173250.905000", "173252.395000", "173253.885000", "173255.375000", "173256.865000", "173258.355000", "173259.845000", "173301.335000", "173302.825000", "173304.315000", "173305.805000", "173307.295000", "173308.785000", "173310.275000", "173311.765000", "173313.255000", "173314.745000", "173316.235000", "173317.725000", "173319.215000", "173320.705000", "173322.195000", "173323.685000", "173325.175000", "173326.665000", "173328.155000", "173329.645000", "173331.135000", "173332.625000", "173334.115000", "173335.605000", "173337.095000", "173338.585000", "173340.075000", "173341.565000", "173343.055000", "173344.545000", "173346.035000", "173347.525000", "173349.015000", "173350.505000", "173351.995000", "173353.485000", "173354.975000", "173356.465000", "173357.955000", "173359.445000", "173400.935000", "173402.425000", "173403.915000", "173405.405000", "173406.895000", "173408.385000", "173409.875000", "173411.365000", "173412.855000", "173414.345000", "173415.835000", "173417.325000", "173418.815000", "173420.305000", "173421.795000", "173423.285000", "173424.775000", "173426.265000", "173427.755000", "173429.245000", "173430.735000", "173432.225000", "173433.715000", "173435.205000", "173436.695000", "173438.185000", "173439.675000", "173441.165000", "173442.655000", "173444.145000", "173445.635000", "173447.125000", "173448.615000", "173450.105000", "173451.595000", "173453.085000", "173454.575000", "173456.065000", "173457.555000", "173459.045000", "173500.535000", "173502.025000", "173503.515000", "173505.005000", "173506.495000", "173507.985000", "173509.475000"],
      "ContentTime": ["172612.423000", "172612.426000", "172612.428000", "172612.438000", "172612.440000", "172612.443000", "172612.445000", "172612.448000", "172612.450000", "172612.453000", "172612.455000", "172612.458000", "172612.460000", "172612.463000", "172612.465000", "172612.467000", "172612.470000", "172612.472000", "172612.475000", "172612.477000", "172612.480000", "172612.482000", "172612.485000", "172612.487000", "172612.489000", "172612.492000", "172612.494000", "172612.497000", "172612.499000", "172612.502000", "172612.504000", "172612.507000", "172612.509000", "172632.335000", "172632.338000", "172632.340000", "172632.343000", "172632.345000", "172632.348000", "172632.350000", "172632.353000", "172632.355000", "172632.358000", "172632.360000", "172632.363000", "172632.365000", "172632.367000", "172632.370000", "172632.372000", "172632.375000", "172632.377000", "172632.380000", "172632.382000", "172652.333000", "172652.336000", "172652.338000", "172652.341000", "172652.343000", "172652.346000", "172652.348000", "172652.351000", "172652.353000", "172652.356000", "172652.358000", "172652.361000", "172652.363000", "172652.365000", "172652.368000", "172652.371000", "172652.373000", "172652.375000", "172652.378000", "172652.380000", "172712.361000", "172712.364000", "172712.366000", "172712.369000", "172712.371000", "172712.374000", "172712.376000", "172712.379000", "172712.381000", "172712.384000", "172712.386000", "172712.389000", "172712.391000", "172712.393000", "172712.396000", "172712.398000", "172712.401000", "172712.403000", "172712.406000", "172712.408000", "172732.359000", "172732.362000", "172732.364000", "172732.368000", "172732.370000", "172732.373000", "172732.375000", "172732.378000", "172732.380000", "172732.383000", "172732.385000", "172732.388000", "172732.390000", "172732.393000", "172732.395000", "172732.398000", "172732.400000", "172732.402000", "172812.779000", "172812.782000", "172812.785000", "172812.787000", "172812.790000", "172812.792000", "172812.795000", "172812.798000", "172812.800000", "172812.803000", "172812.805000", "172812.808000", "172812.810000", "172812.813000", "172812.815000", "172812.818000", "172812.820000", "172812.823000", "172812.825000", "172812.828000", "172812.830000", "172812.833000", "172812.835000", "172812.838000", "172812.841000", "172812.843000", "172812.845000", "172852.370000", "172852.372000", "172852.375000", "172852.377000", "172852.380000", "172852.382000", "172852.385000", "172852.387000", "172852.390000", "172852.392000", "172852.395000", "172852.397000", "172852.400000", "172852.402000", "172852.405000", "172852.407000", "172852.410000", "172852.412000", "172852.415000", "172852.417000", "172852.420000", "172852.422000", "172852.424000", "172852.427000", "172852.429000", "172852.432000", "172852.434000", "172932.389000", "172932.391000", "172932.394000", "172932.396000", "172932.399000", "172932.401000", "172932.404000", "172932.406000", "172932.409000", "172932.411000", "172932.414000", "172932.416000", "172932.418000", "172932.421000", "172932.423000", "172932.426000", "172932.428000", "172932.431000", "172932.433000", "172932.436000", "172932.438000", "172932.440000", "172932.443000", "172932.445000", "172932.448000", "172932.450000", "172932.453000", "173012.369000", "173012.371000", "173012.374000", "173012.376000", "173012.379000", "173012.381000", "173012.384000", "173012.386000", "173012.389000", "173012.391000", "173012.393000", "173012.396000", "173012.398000", "173012.401000", "173012.403000", "173012.406000", "173012.408000", "173012.411000", "173012.413000", "173012.416000", "173012.418000", "173012.421000", "173012.423000", "173012.426000", "173012.428000", "173012.431000", "173012.433000", "173052.371000", "173052.373000", "173052.376000", "173052.378000", "173052.381000", "173052.383000", "173052.386000", "173052.388000", "173052.391000", "173052.393000", "173052.395000", "173052.398000", "173052.400000", "173052.403000", "173052.405000", "173052.408000", "173052.410000", "173052.413000", "173052.415000", "173052.417000", "173052.420000", "173052.422000", "173052.425000", "173052.427000", "173052.430000", "173052.432000", "173052.435000", "173132.367000", "173132.370000", "173132.372000", "173132.375000", "173132.377000", "173132.381000", "173132.385000", "173132.388000", "173132.391000", "173132.393000", "173132.396000", "173132.399000", "173132.401000", "173132.403000", "173132.406000", "173132.408000", "173132.411000", "173132.413000", "173132.416000", "173132.418000", "173132.421000", "173132.423000", "173132.426000", "173132.428000", "173132.431000", "173132.433000", "173212.369000", "173212.372000", "173212.374000", "173212.376000", "173212.379000", "173212.381000", "173212.384000", "173212.386000", "173212.389000", "173212.391000", "173212.394000", "173212.396000", "173212.399000", "173212.401000", "173212.404000", "173212.406000", "173212.408000", "173212.411000", "173212.413000", "173212.416000", "173212.418000", "173212.421000", "173212.423000", "173212.426000", "173212.428000", "173212.431000", "173212.433000", "173252.378000", "173252.380000", "173252.383000", "173252.385000", "173252.388000", "173252.390000", "173252.393000", "173252.395000", "173252.398000", "173252.400000", "173252.403000", "173252.405000", "173252.408000", "173252.410000", "173252.412000", "173252.415000", "173252.417000", "173252.420000", "173252.422000", "173252.425000", "173252.427000", "173252.430000", "173252.432000", "173252.435000", "173252.437000", "173252.440000", "173252.442000", "173332.380000", "173332.383000", "173332.385000", "173332.388000", "173332.390000", "173332.393000", "173332.396000", "173332.398000", "173332.401000", "173332.403000", "173332.406000", "173332.408000", "173332.411000", "173332.413000", "173332.415000", "173332.418000", "173332.420000", "173332.423000", "173332.425000", "173332.428000", "173332.430000", "173332.433000", "173332.435000", "173332.438000", "173332.440000", "173332.443000", "173332.445000", "173412.371000", "173412.373000", "173412.376000", "173412.378000", "173412.381000", "173412.383000", "173412.386000", "173412.388000", "173412.392000", "173412.395000", "173412.397000", "173412.400000", "173412.402000", "173412.405000", "173412.407000", "173412.409000", "173412.412000", "173412.414000", "173412.417000", "173412.419000", "173412.422000", "173412.424000", "173412.427000", "173412.429000", "173412.432000", "173412.434000", "173412.437000", "173452.368000", "173452.371000", "173452.374000", "173452.376000", "173452.378000", "173452.381000", "173452.383000", "173452.386000", "173452.388000", "173452.391000", "173452.393000", "173452.396000", "173452.398000", "173452.401000", "173452.403000", "173452.406000", "173452.408000", "173452.411000", "173452.413000", "173452.416000", "173452.418000", "173452.420000", "173452.423000", "173452.426000", "173452.428000", "173452.430000", "173452.433000", "173512.025000", "173512.028000", "173512.030000", "173512.033000", "173512.036000", "173512.038000", "173512.041000", "173512.043000", "173512.046000", "173512.048000", "173512.051000", "173512.054000", "173512.056000"],
      "InstanceCreationTime": ["172612.423000", "172612.426000", "172612.428000", "172612.438000", "172612.440000", "172612.443000", "172612.445000", "172612.448000", "172612.450000", "172612.453000", "172612.455000", "172612.458000", "172612.460000", "172612.463000", "172612.465000", "172612.467000", "172612.470000", "172612.472000", "172612.475000", "172612.477000", "172612.480000", "172612.482000", "172612.485000", "172612.487000", "172612.489000", "172612.492000", "172612.494000", "172612.497000", "172612.499000", "172612.502000", "172612.504000", "172612.507000", "172612.509000", "172632.335000", "172632.338000", "172632.340000", "172632.343000", "172632.345000", "172632.348000", "172632.350000", "172632.353000", "172632.355000", "172632.358000", "172632.360000", "172632.363000", "172632.365000", "172632.367000", "172632.370000", "172632.372000", "172632.375000", "172632.377000", "172632.380000", "172632.382000", "172652.333000", "172652.336000", "172652.338000", "172652.341000", "172652.343000", "172652.346000", "172652.348000", "172652.351000", "172652.353000", "172652.356000", "172652.358000", "172652.361000", "172652.363000", "172652.365000", "172652.368000", "172652.371000", "172652.373000", "172652.375000", "172652.378000", "172652.380000", "172712.361000", "172712.364000", "172712.366000", "172712.369000", "172712.371000", "172712.374000", "172712.376000", "172712.379000", "172712.381000", "172712.384000", "172712.386000", "172712.389000", "172712.391000", "172712.393000", "172712.396000", "172712.398000", "172712.401000", "172712.403000", "172712.406000", "172712.408000", "172732.359000", "172732.362000", "172732.364000", "172732.368000", "172732.370000", "172732.373000", "172732.375000", "172732.378000", "172732.380000", "172732.383000", "172732.385000", "172732.388000", "172732.390000", "172732.393000", "172732.395000", "172732.398000", "172732.400000", "172732.402000", "172812.779000", "172812.782000", "172812.785000", "172812.787000", "172812.790000", "172812.792000", "172812.795000", "172812.798000", "172812.800000", "172812.803000", "172812.805000", "172812.808000", "172812.810000", "172812.813000", "172812.815000", "172812.818000", "172812.820000", "172812.823000", "172812.825000", "172812.828000", "172812.830000", "172812.833000", "172812.835000", "172812.838000", "172812.841000", "172812.843000", "172812.845000", "172852.370000", "172852.372000", "172852.375000", "172852.377000", "172852.380000", "172852.382000", "172852.385000", "172852.387000", "172852.390000", "172852.392000", "172852.395000", "172852.397000", "172852.400000", "172852.402000", "172852.405000", "172852.407000", "172852.410000", "172852.412000", "172852.415000", "172852.417000", "172852.420000", "172852.422000", "172852.424000", "172852.427000", "172852.429000", "172852.432000", "172852.434000", "172932.389000", "172932.391000", "172932.394000", "172932.396000", "172932.399000", "172932.401000", "172932.404000", "172932.406000", "172932.409000", "172932.411000", "172932.414000", "172932.416000", "172932.418000", "172932.421000", "172932.423000", "172932.426000", "172932.428000", "172932.431000", "172932.433000", "172932.436000", "172932.438000", "172932.440000", "172932.443000", "172932.445000", "172932.448000", "172932.450000", "172932.453000", "173012.369000", "173012.371000", "173012.374000", "173012.376000", "173012.379000", "173012.381000", "173012.384000", "173012.386000", "173012.389000", "173012.391000", "173012.393000", "173012.396000", "173012.398000", "173012.401000", "173012.403000", "173012.406000", "173012.408000", "173012.411000", "173012.413000", "173012.416000", "173012.418000", "173012.421000", "173012.423000", "173012.426000", "173012.428000", "173012.431000", "173012.433000", "173052.371000", "173052.373000", "173052.376000", "173052.378000", "173052.381000", "173052.383000", "173052.386000", "173052.388000", "173052.391000", "173052.393000", "173052.395000", "173052.398000", "173052.400000", "173052.403000", "173052.405000", "173052.408000", "173052.410000", "173052.413000", "173052.415000", "173052.417000", "173052.420000", "173052.422000", "173052.425000", "173052.427000", "173052.430000", "173052.432000", "173052.435000", "173132.367000", "173132.370000", "173132.372000", "173132.375000", "173132.377000", "173132.381000", "173132.385000", "173132.388000", "173132.391000", "173132.393000", "173132.396000", "173132.399000", "173132.401000", "173132.403000", "173132.406000", "173132.408000", "173132.411000", "173132.413000", "173132.416000", "173132.418000", "173132.421000", "173132.423000", "173132.426000", "173132.428000", "173132.431000", "173132.433000", "173212.369000", "173212.372000", "173212.374000", "173212.376000", "173212.379000", "173212.381000", "173212.384000", "173212.386000", "173212.389000", "173212.391000", "173212.394000", "173212.396000", "173212.399000", "173212.401000", "173212.404000", "173212.406000", "173212.408000", "173212.411000", "173212.413000", "173212.416000", "173212.418000", "173212.421000", "173212.423000", "173212.426000", "173212.428000", "173212.431000", "173212.433000", "173252.378000", "173252.380000", "173252.383000", "173252.385000", "173252.388000", "173252.390000", "173252.393000", "173252.395000", "173252.398000", "173252.400000", "173252.403000", "173252.405000", "173252.408000", "173252.410000", "173252.412000", "173252.415000", "173252.417000", "173252.420000", "173252.422000", "173252.425000", "173252.427000", "173252.430000", "173252.432000", "173252.435000", "173252.437000", "173252.440000", "173252.442000", "173332.380000", "173332.383000", "173332.385000", "173332.388000", "173332.390000", "173332.393000", "173332.396000", "173332.398000", "173332.401000", "173332.403000", "173332.406000", "173332.408000", "173332.411000", "173332.413000", "173332.415000", "173332.418000", "173332.420000", "173332.423000", "173332.425000", "173332.428000", "173332.430000", "173332.433000", "173332.435000", "173332.438000", "173332.440000", "173332.443000", "173332.445000", "173412.371000", "173412.373000", "173412.376000", "173412.378000", "173412.381000", "173412.383000", "173412.386000", "173412.388000", "173412.392000", "173412.395000", "173412.397000", "173412.400000", "173412.402000", "173412.405000", "173412.407000", "173412.409000", "173412.412000", "173412.414000", "173412.417000", "173412.419000", "173412.422000", "173412.424000", "173412.427000", "173412.429000", "173412.432000", "173412.434000", "173412.437000", "173452.368000", "173452.371000", "173452.374000", "173452.376000", "173452.378000", "173452.381000", "173452.383000", "173452.386000", "173452.388000", "173452.391000", "173452.393000", "173452.396000", "173452.398000", "173452.401000", "173452.403000", "173452.406000", "173452.408000", "173452.411000", "173452.413000", "173452.416000", "173452.418000", "173452.420000", "173452.423000", "173452.426000", "173452.428000", "173452.430000", "173452.433000", "173512.025000", "173512.028000", "173512.030000", "173512.033000", "173512.036000", "173512.038000", "173512.041000", "173512.043000", "173512.046000", "173512.048000", "173512.051000", "173512.054000", "173512.056000"],
