{
  "AcquisitionMatrixPE": 104,
  "AcquisitionNumber": 1,
  "AcquisitionTime": "17:12:51.322500",
  "BandwidthPerPixelPhaseEncode": 17.17,
  "BaseResolution": 104,
  "BodyPartExamined": "BRAIN",
  "CoilCombinationMethod": "Sum of Squares",
  "ConsistencyInfo": "N4_VE11C_LATEST_20160120",
  "ConversionSoftware": "dcm2niix",
  "ConversionSoftwareVersion": "v1.0.20211006",
  "DerivedVendorReportedEchoSpacing": 0.000560011,
  "DeviceSerialNumber": "167006",
  "DwellTime": 2.1e-06,
  "EchoTime": 0.037,
  "EchoTrainLength": 104,
  "EffectiveEchoSpacing": 0.000560011,
  "FlipAngle": 52,
  "HeudiconvVersion": "0.10.0",
  "ImageComments": "Unaliased MB4/PE3/LB",
  "ImageOrientationPatientDICOM": [0.998606, -0.0179248, 0.0496423, 0.0408065, 0.858735, -0.510793],
  "ImageOrientationText": "Tra>Cor(-30.8)>Sag(1.9)",
  "ImageType": [
    "ORIGINAL",
    "PRIMARY",
    "M",
    "MB",
    "ND",
    "MOSAIC"
],
  "ImagingFrequency": 123.259,
  "InPlanePhaseEncodingDirectionDICOM": "COL",
  "InstitutionAddress": "Chemin Queen-Mary 4565,Montreal,District,CA,H3W 1W5",
  "InstitutionName": "IUGM",
  "InstitutionalDepartmentName": "Department",
  "MRAcquisitionType": "2D",
  "MagneticFieldStrength": 3,
  "Manufacturer": "Siemens",
  "ManufacturersModelName": "Prisma_fit",
  "MatrixCoilMode": "SENSE",
  "Modality": "MR",
  "MultibandAccelerationFactor": 4,
  "PartialFourier": 1,
  "PatientPosition": "HFS",
  "PercentPhaseFOV": 100,
  "PercentSampling": 100,
  "PhaseEncodingDirection": "j",
  "PhaseEncodingSteps": 104,
  "PhaseResolution": 1,
  "PixelBandwidth": 2290,
  "ProcedureStepDescription": "games^mario",
  "ProtocolName": "func_task-mario_run-01",
  "PulseSequenceDetails": "%CustomerSeq%\\cmrr_mbep2d_bold",
  "ReceiveCoilActiveElements": "HC1-7;NC1,2",
  "ReceiveCoilName": "HeadNeck_64",
  "ReconMatrixPE": 104,
  "RepetitionTime": 1.49,
  "SAR": 0.0507186,
  "ScanOptions": "FS",
  "ScanningSequence": "EP",
  "SequenceName": "epfid2d1_104",
  "SequenceVariant": "SK\\SS",
  "SeriesDescription": "func_task-mario_run-01",
  "SeriesNumber": 10,
  "ShimSetting": [623, -7179, -8881, 221, -2, -178, 25, -15],
  "SliceThickness": 2,
  "SliceTiming": [0, 0.785, 0.0975, 0.8825, 0.195, 0.98, 0.295, 1.0775, 0.3925, 1.175, 0.49, 1.275, 0.5875, 1.3725, 0.685, 0, 0.785, 0.0975, 0.8825, 0.195, 0.98, 0.295, 1.0775, 0.3925, 1.175, 0.49, 1.275, 0.5875, 1.3725, 0.685, 0, 0.785, 0.0975, 0.8825, 0.195, 0.98, 0.295, 1.0775, 0.3925, 1.175, 0.49, 1.275, 0.5875, 1.3725, 0.685, 0, 0.785, 0.0975, 0.8825, 0.195, 0.98, 0.295, 1.0775, 0.3925, 1.175, 0.49, 1.275, 0.5875, 1.3725, 0.685],
  "SoftwareVersions": "syngo MR E11",
  "SpacingBetweenSlices": 2,
  "StationName": "MRC35049",
  "TaskName": "mario",
  "TotalReadoutTime": 0.0576811,
  "TxRefAmp": 271.408,
  "WipMemBlock": "0e30a52a-41a5-44f4-92a8-244ac2bf5873||Sequence: R016 ve11c/master r/e634e98; Dec 19 2017 11:00:25 by eja",
  "dcmmeta_affine": [
    [-1.9972124099731445, 0.08161290735006332, 0.06694737821817398, 101.23307037353516],
    [0.035849589854478836, 1.717469334602356, -1.0242136716842651, -52.254146575927734],
    [0.09928455948829651, 1.0215861797332764, 1.716538429260254, -104.86730194091797],
    [0.0, 0.0, 0.0, 1.0]
],
  "dcmmeta_reorient_transform": [
    [0.0, -1.0, 0.0, 103.0],
    [1.0, 0.0, 0.0, 0.0],
    [0.0, 0.0, 1.0, 0.0],
    [0.0, 0.0, 0.0, 1.0]
],
  "dcmmeta_shape": [104, 104, 60, 423],
  "dcmmeta_slice_dim": 2,
  "dcmmeta_version": 0.6,
  "global": {
    "const": {
      "AcquisitionMatrix": [104, 0, 0, 104],
      "AngioFlag": "N",
      "BitsAllocated": 16,
      "BitsStored": 16,
      "BodyPartExamined": "BRAIN",
      "Columns": 832,
      "EchoNumbers": 1,
      "EchoTime": 37.0,
      "EchoTrainLength": 104,
      "FlipAngle": 52.0,
      "HighBit": 15,
      "ImageOrientationPatient": [0.9986062015049, -0.0179247947388, 0.04964228086542, 0.04080645212472, 0.85873469309141, -0.5107930699865],
      "ImagePositionPatient": [-866.33160959246, -736.75480512539, 336.07384555628],
      "ImageType": [
        "ORIGINAL",
        "PRIMARY",
        "M",
        "MB",
        "ND",
        "MOSAIC"
],
      "ImagedNucleus": "1H",
      "ImagingFrequency": 123.258873,
      "InPlanePhaseEncodingDirection": "COL",
      "MRAcquisitionType": "2D",
      "MagneticFieldStrength": 3.0,
      "Manufacturer": "SIEMENS",
      "ManufacturerModelName": "Prisma_fit",
      "Modality": "MR",
      "NumberOfAverages": 1.0,
      "NumberOfPhaseEncodingSteps": 104,
      "PercentPhaseFieldOfView": 100.0,
      "PercentSampling": 100.0,
      "PerformedProcedureStepStartTime": "170934.171000",
      "PhotometricInterpretation": "MONOCHROME2",
      "PixelBandwidth": 2290.0,
      "PixelRepresentation": 0,
      "PixelSpacing": [2.0, 2.0],
      "ProtocolName": "func_task-mario_run-01",
      "RepetitionTime": 1490.0,
      "Rows": 832,
      "SAR": 0.05071860497142,
      "SamplesPerPixel": 1,
      "ScanOptions": "FS",
      "ScanningSequence": "EP",
      "SequenceName": "epfid2d1_104",
      "SequenceVariant": [
        "SK",
        "SS"
],
      "SeriesDescription": "func_task-mario_run-01",
      "SeriesNumber": 10,
      "SeriesTime": "171419.123000",
      "SliceLocation": -59.85602749496,
      "SliceThickness": 2.0,
      "SmallestImagePixelValue": 0,
      "SoftwareVersions": "syngo MR E11",
      "SpacingBetweenSlices": 1.9999999679009,
      "SpecificCharacterSet": "ISO_IR 100",
      "StudyID": "1",
      "StudyTime": "170934.026000",
      "TransmitCoilName": "Body",
      "VariableFlipAngleFlag": "N",
      "WindowCenterWidthExplanation": "Algo1",
      "dBdt": 0.0},
    "slices": {}
  },
  "time": {
    "samples": {
      "AcquisitionNumber": [1, 2, 3, 4, 5, 6, 7, 8, 9, 10, 11, 12, 13, 14, 15, 16, 17, 18, 19, 20, 21, 22, 23, 24, 25, 26, 27, 28, 29, 30, 31, 32, 33, 34, 35, 36, 37, 38, 39, 40, 41, 42, 43, 44, 45, 46, 47, 48, 49, 50, 51, 52, 53, 54, 55, 56, 57, 58, 59, 60, 61, 62, 63, 64, 65, 66, 67, 68, 69, 70, 71, 72, 73, 74, 75, 76, 77, 78, 79, 80, 81, 82, 83, 84, 85, 86, 87, 88, 89, 90, 91, 92, 93, 94, 95, 96, 97, 98, 99, 100, 101, 102, 103, 104, 105, 106, 107, 108, 109, 110, 111, 112, 113, 114, 115, 116, 117, 118, 119, 120, 121, 122, 123, 124, 125, 126, 127, 128, 129, 130, 131, 132, 133, 134, 135, 136, 137, 138, 139, 140, 141, 142, 143, 144, 145, 146, 147, 148, 149, 150, 151, 152, 153, 154, 155, 156, 157, 158, 159, 160, 161, 162, 163, 164, 165, 166, 167, 168, 169, 170, 171, 172, 173, 174, 175, 176, 177, 178, 179, 180, 181, 182, 183, 184, 185, 186, 187, 188, 189, 190, 191, 192, 193, 194, 195, 196, 197, 198, 199, 200, 201, 202, 203, 204, 205, 206, 207, 208, 209, 210, 211, 212, 213, 214, 215, 216, 217, 218, 219, 220, 221, 222, 223, 224, 225, 226, 227, 228, 229, 230, 231, 232, 233, 234, 235, 236, 237, 238, 239, 240, 241, 242, 243, 244, 245, 246, 247, 248, 249, 250, 251, 252, 253, 254, 255, 256, 257, 258, 259, 260, 261, 262, 263, 264, 265, 266, 267, 268, 269, 270, 271, 272, 273, 274, 275, 276, 277, 278, 279, 280, 281, 282, 283, 284, 285, 286, 287, 288, 289, 290, 291, 292, 293, 294, 295, 296, 297, 298, 299, 300, 301, 302, 303, 304, 305, 306, 307, 308, 309, 310, 311, 312, 313, 314, 315, 316, 317, 318, 319, 320, 321, 322, 323, 324, 325, 326, 327, 328, 329, 330, 331, 332, 333, 334, 335, 336, 337, 338, 339, 340, 341, 342, 343, 344, 345, 346, 347, 348, 349, 350, 351, 352, 353, 354, 355, 356, 357, 358, 359, 360, 361, 362, 363, 364, 365, 366, 367, 368, 369, 370, 371, 372, 373, 374, 375, 376, 377, 378, 379, 380, 381, 382, 383, 384, 385, 386, 387, 388, 389, 390, 391, 392, 393, 394, 395, 396, 397, 398, 399, 400, 401, 402, 403, 404, 405, 406, 407, 408, 409, 410, 411, 412, 413, 414, 415, 416, 417, 418, 419, 420, 421, 422, 423],
      "AcquisitionTime": ["171251.322500", "171252.812500", "171254.302500", "171255.792500", "171257.282500", "171258.772500", "171300.262500", "171301.752500", "171303.242500", "171304.732500", "171306.222500", "171307.712500", "171309.202500", "171310.692500", "171312.182500", "171313.672500", "171315.162500", "171316.652500", "171318.142500", "171319.632500", "171321.122500", "171322.612500", "171324.102500", "171325.592500", "171327.082500", "171328.572500", "171330.062500", "171331.552500", "171333.042500", "171334.532500", "171336.022500", "171337.512500", "171339.002500", "171340.492500", "171341.982500", "171343.472500", "171344.962500", "171346.452500", "171347.942500", "171349.432500", "171350.922500", "171352.412500", "171353.902500", "171355.392500", "171356.882500", "171358.372500", "171359.862500", "171401.352500", "171402.842500", "171404.332500", "171405.822500", "171407.312500", "171408.802500", "171410.292500", "171411.782500", "171413.272500", "171414.762500", "171416.252500", "171417.742500", "171419.232500", "171420.722500", "171422.212500", "171423.702500", "171425.192500", "171426.682500", "171428.172500", "171429.662500", "171431.152500", "171432.642500", "171434.132500", "171435.622500", "171437.112500", "171438.602500", "171440.092500", "171441.582500", "171443.072500", "171444.562500", "171446.052500", "171447.542500", "171449.032500", "171450.522500", "171452.012500", "171453.502500", "171454.992500", "171456.482500", "171457.972500", "171459.462500", "171500.952500", "171502.442500", "171503.932500", "171505.422500", "171506.912500", "171508.402500", "171509.892500", "171511.382500", "171512.872500", "171514.362500", "171515.852500", "171517.342500", "171518.832500", "171520.322500", "171521.812500", "171523.302500", "171524.792500", "171526.282500", "171527.772500", "171529.262500", "171530.752500", "171532.242500", "171533.732500", "171535.222500", "171536.712500", "171538.202500", "171539.692500", "171541.182500", "171542.672500", "171544.162500", "171545.652500", "171547.142500", "171548.632500", "171550.122500", "171551.612500", "171553.102500", "171554.592500", "171556.082500", "171557.572500", "171559.062500", "171600.552500", "171602.042500", "171603.532500", "171605.022500", "171606.512500", "171608.002500", "171609.492500", "171610.982500", "171612.472500", "171613.962500", "171615.452500", "171616.942500", "171618.432500", "171619.922500", "171621.412500", "171622.902500", "171624.392500", "171625.882500", "171627.372500", "171628.862500", "171630.352500", "171631.842500", "171633.332500", "171634.822500", "171636.312500", "171637.802500", "171639.292500", "171640.782500", "171642.272500", "171643.762500", "171645.252500", "171646.742500", "171648.232500", "171649.722500", "171651.212500", "171652.702500", "171654.192500", "171655.682500", "171657.172500", "171658.662500", "171700.152500", "171701.642500", "171703.132500", "171704.622500", "171706.112500", "171707.602500", "171709.092500", "171710.582500", "171712.072500", "171713.562500", "171715.052500", "171716.542500", "171718.032500", "171719.522500", "171721.012500", "171722.502500", "171723.992500", "171725.482500", "171726.972500", "171728.462500", "171729.952500", "171731.442500", "171732.932500", "171734.422500", "171735.912500", "171737.402500", "171738.892500", "171740.382500", "171741.872500", "171743.362500", "171744.852500", "171746.342500", "171747.832500", "171749.322500", "171750.812500", "171752.302500", "171753.792500", "171755.282500", "171756.772500", "171758.262500", "171759.752500", "171801.242500", "171802.732500", "171804.222500", "171805.712500", "171807.202500", "171808.692500", "171810.182500", "171811.672500", "171813.162500", "171814.652500", "171816.142500", "171817.632500", "171819.122500", "171820.612500", "171822.102500", "171823.592500", "171825.082500", "171826.572500", "171828.062500", "171829.552500", "171831.042500", "171832.532500", "171834.022500", "171835.512500", "171837.002500", "171838.492500", "171839.982500", "171841.472500", "171842.962500", "171844.452500", "171845.942500", "171847.432500", "171848.922500", "171850.412500", "171851.902500", "171853.392500", "171854.882500", "171856.372500", "171857.862500", "171859.352500", "171900.842500", "171902.332500", "171903.822500", "171905.312500", "171906.802500", "171908.292500", "171909.782500", "171911.272500", "171912.762500", "171914.252500", "171915.742500", "171917.232500", "171918.722500", "171920.212500", "171921.702500", "171923.192500", "171924.682500", "171926.172500", "171927.662500", "171929.152500", "171930.642500", "171932.132500", "171933.622500", "171935.112500", "171936.602500", "171938.092500", "171939.582500", "171941.072500", "171942.562500", "171944.052500", "171945.542500", "171947.032500", "171948.522500", "171950.012500", "171951.502500", "171952.992500", "171954.482500", "171955.972500", "171957.462500", "171958.952500", "172000.442500", "172001.932500", "172003.422500", "172004.912500", "172006.402500", "172007.892500", "172009.382500", "172010.872500", "172012.362500", "172013.852500", "172015.342500", "172016.832500", "172018.322500", "172019.812500", "172021.302500", "172022.792500", "172024.282500", "172025.772500", "172027.262500", "172028.752500", "172030.242500", "172031.732500", "172033.222500", "172034.712500", "172036.202500", "172037.692500", "172039.182500", "172040.672500", "172042.162500", "172043.652500", "172045.142500", "172046.632500", "172048.122500", "172049.612500", "172051.102500", "172052.592500", "172054.082500", "172055.572500", "172057.062500", "172058.552500", "172100.042500", "172101.532500", "172103.022500", "172104.512500", "172106.002500", "172107.492500", "172108.982500", "172110.472500", "172111.962500", "172113.452500", "172114.942500", "172116.432500", "172117.922500", "172119.412500", "172120.902500", "172122.392500", "172123.882500", "172125.372500", "172126.862500", "172128.352500", "172129.842500", "172131.332500", "172132.822500", "172134.312500", "172135.802500", "172137.292500", "172138.782500", "172140.272500", "172141.762500", "172143.252500", "172144.742500", "172146.232500", "172147.722500", "172149.212500", "172150.702500", "172152.192500", "172153.682500", "172155.172500", "172156.662500", "172158.152500", "172159.642500", "172201.132500", "172202.622500", "172204.112500", "172205.602500", "172207.092500", "172208.582500", "172210.072500", "172211.562500", "172213.052500", "172214.542500", "172216.032500", "172217.522500", "172219.012500", "172220.502500", "172221.992500", "172223.482500", "172224.972500", "172226.462500", "172227.952500", "172229.442500", "172230.932500", "172232.422500", "172233.912500", "172235.402500", "172236.892500", "172238.382500", "172239.872500", "172241.362500", "172242.852500", "172244.342500", "172245.832500", "172247.322500", "172248.812500", "172250.302500", "172251.792500", "172253.282500", "172254.772500", "172256.262500", "172257.752500", "172259.242500", "172300.732500", "172302.222500", "172303.712500", "172305.202500", "172306.692500", "172308.182500", "172309.672500", "172311.162500", "172312.652500", "172314.142500", "172315.632500", "172317.122500", "172318.612500", "172320.102500"],
      "ContentTime": ["171419.127000", "171419.130000", "171419.134000", "171419.137000", "171419.140000", "171419.143000", "171419.147000", "171419.150000", "171419.153000", "171419.156000", "171419.160000", "171419.163000", "171419.166000", "171419.169000", "171419.173000", "171419.176000", "171419.189000", "171419.193000", "171419.196000", "171419.199000", "171419.202000", "171419.206000", "171419.209000", "171419.212000", "171419.215000", "171419.219000", "171419.222000", "171419.225000", "171419.228000", "171419.232000", "171419.235000", "171419.238000", "171419.241000", "171419.245000", "171419.248000", "171439.087000", "171439.091000", "171439.094000", "171439.097000", "171439.100000", "171439.104000", "171439.107000", "171439.110000", "171439.113000", "171439.117000", "171439.120000", "171439.123000", "171439.126000", "171439.130000", "171439.133000", "171439.136000", "171439.139000", "171439.143000", "171439.146000", "171439.149000", "171459.087000", "171459.091000", "171459.094000", "171459.097000", "171459.100000", "171459.104000", "171459.107000", "171459.110000", "171459.113000", "171459.116000", "171459.120000", "171459.123000", "171459.126000", "171459.129000", "171459.133000", "171459.136000", "171459.139000", "171459.142000", "171459.146000", "171459.149000", "171519.086000", "171519.089000", "171519.093000", "171519.096000", "171519.099000", "171519.102000", "171519.106000", "171519.109000", "171519.112000", "171519.115000", "171519.125000", "171519.128000", "171519.131000", "171519.135000", "171519.138000", "171519.141000", "171519.144000", "171519.148000", "171519.151000", "171519.154000", "171519.157000", "171559.087000", "171559.091000", "171559.094000", "171559.097000", "171559.100000", "171559.104000", "171559.107000", "171559.110000", "171559.113000", "171559.117000", "171559.120000", "171559.123000", "171559.126000", "171559.130000", "171559.133000", "171559.136000", "171559.139000", "171559.143000", "171559.146000", "171559.149000", "171559.152000", "171559.156000", "171559.159000", "171559.162000", "171559.165000", "171559.169000", "171559.172000", "171559.175000", "171559.178000", "171639.087000", "171639.091000", "171639.094000", "171639.097000", "171639.100000", "171639.104000", "171639.107000", "171639.110000", "171639.128000", "171639.131000", "171639.135000", "171639.138000", "171639.141000", "171639.144000", "171639.148000", "171639.151000", "171639.154000", "171639.157000", "171639.161000", "171639.164000", "171639.168000", "171639.171000", "171639.174000", "171639.178000", "171639.181000", "171639.184000", "171639.187000", "171719.087000", "171719.091000", "171719.094000", "171719.097000", "171719.100000", "171719.104000", "171719.107000", "171719.110000", "171719.114000", "171719.117000", "171719.120000", "171719.123000", "171719.126000", "171719.130000", "171719.133000", "171719.136000", "171719.139000", "171719.143000", "171719.146000", "171719.149000", "171719.152000", "171719.156000", "171719.159000", "171719.162000", "171719.165000", "171719.168000", "171719.172000", "171759.087000", "171759.091000", "171759.094000", "171759.097000", "171759.101000", "171759.104000", "171759.107000", "171759.110000", "171759.114000", "171759.117000", "171759.120000", "171759.123000", "171759.127000", "171759.130000", "171759.133000", "171759.137000", "171759.140000", "171759.143000", "171759.146000", "171759.150000", "171759.153000", "171759.156000", "171759.159000", "171759.163000", "171759.166000", "171759.169000", "171759.172000", "171839.087000", "171839.091000", "171839.094000", "171839.097000", "171839.100000", "171839.104000", "171839.107000", "171839.110000", "171839.114000", "171839.117000", "171839.120000", "171839.123000", "171839.127000", "171839.130000", "171839.133000", "171839.136000", "171839.140000", "171839.143000", "171839.146000", "171839.149000", "171839.153000", "171839.156000", "171839.159000", "171839.162000", "171839.165000", "171839.169000", "171919.096000", "171919.100000", "171919.103000", "171919.106000", "171919.110000", "171919.113000", "171919.116000", "171919.119000", "171919.123000", "171919.126000", "171919.129000", "171919.132000", "171919.136000", "171919.139000", "171919.142000", "171919.145000", "171919.149000", "171919.152000", "171919.155000", "171919.158000", "171919.162000", "171919.165000", "171919.168000", "171919.171000", "171919.174000", "171919.178000", "171919.181000", "171959.086000", "171959.090000", "171959.093000", "171959.096000", "171959.100000", "171959.103000", "171959.106000", "171959.109000", "171959.113000", "171959.116000", "171959.119000", "171959.123000", "171959.126000", "171959.129000", "171959.132000", "171959.135000", "171959.139000", "171959.142000", "171959.145000", "171959.149000", "171959.152000", "171959.155000", "171959.158000", "171959.162000", "171959.165000", "171959.168000", "171959.171000", "172039.087000", "172039.091000", "172039.094000", "172039.097000", "172039.101000", "172039.104000", "172039.107000", "172039.111000", "172039.114000", "172039.117000", "172039.120000", "172039.124000", "172039.127000", "172039.130000", "172039.133000", "172039.137000", "172039.140000", "172039.143000", "172039.147000", "172039.150000", "172039.153000", "172039.156000", "172039.160000", "172039.163000", "172039.166000", "172039.169000", "172039.173000", "172119.087000", "172119.091000", "172119.094000", "172119.097000", "172119.100000", "172119.104000", "172119.107000", "172119.110000", "172119.113000", "172119.117000", "172119.120000", "172119.123000", "172119.126000", "172119.130000", "172119.133000", "172119.146000", "172119.150000", "172119.153000", "172119.156000", "172119.159000", "172119.162000", "172119.166000", "172119.169000", "172119.172000", "172119.175000", "172119.179000", "172119.182000", "172159.087000", "172159.091000", "172159.094000", "172159.097000", "172159.100000", "172159.104000", "172159.107000", "172159.110000", "172159.114000", "172159.117000", "172159.120000", "172159.123000", "172159.126000", "172159.130000", "172159.133000", "172159.136000", "172159.140000", "172159.143000", "172159.146000", "172159.149000", "172159.153000", "172159.156000", "172159.159000", "172159.162000", "172159.166000", "172159.169000", "172159.172000", "172239.087000", "172239.091000", "172239.094000", "172239.097000", "172239.101000", "172239.104000", "172239.107000", "172239.110000", "172239.114000", "172239.117000", "172239.120000", "172239.124000", "172239.127000", "172239.130000", "172239.133000", "172239.137000", "172239.140000", "172239.143000", "172239.146000", "172239.151000", "172239.154000", "172239.157000", "172239.161000", "172239.164000", "172239.167000", "172239.171000", "172239.174000", "172319.087000", "172319.091000", "172319.094000", "172319.097000", "172319.100000", "172319.104000", "172319.107000", "172319.110000", "172319.113000", "172319.117000", "172319.120000", "172319.123000", "172319.126000", "172319.130000", "172319.133000", "172319.136000", "172319.139000", "172319.143000", "172319.146000", "172319.149000", "172319.152000", "172319.156000", "172319.159000", "172319.162000", "172319.166000", "172319.169000", "172323.197000", "172323.201000", "172323.204000"],
      "InstanceCreationTime": ["171419.127000", "171419.130000", "171419.134000", "171419.137000", "171419.140000", "171419.143000", "171419.147000", "171419.150000", "171419.153000", "171419.156000", "171419.160000", "171419.163000", "171419.166000", "171419.169000", "171419.173000", "171419.176000", "171419.189000", "171419.193000", "171419.196000", "171419.199000", "171419.202000", "171419.206000", "171419.209000", "171419.212000", "171419.215000", "171419.219000", "171419.222000", "171419.225000", "171419.228000", "171419.232000", "171419.235000", "171419.238000", "171419.241000", "171419.245000", "171419.248000", "171439.087000", "171439.091000", "171439.094000", "171439.097000", "171439.100000", "171439.104000", "171439.107000", "171439.110000", "171439.113000", "171439.117000", "171439.120000", "171439.123000", "171439.126000", "171439.130000", "171439.133000", "171439.136000", "171439.139000", "171439.143000", "171439.146000", "171439.149000", "171459.087000", "171459.091000", "171459.094000", "171459.097000", "171459.100000", "171459.104000", "171459.107000", "171459.110000", "171459.113000", "171459.116000", "171459.120000", "171459.123000", "171459.126000", "171459.129000", "171459.133000", "171459.136000", "171459.139000", "171459.142000", "171459.146000", "171459.149000", "171519.086000", "171519.089000", "171519.093000", "171519.096000", "171519.099000", "171519.102000", "171519.106000", "171519.109000", "171519.112000", "171519.115000", "171519.125000", "171519.128000", "171519.131000", "171519.135000", "171519.138000", "171519.141000", "171519.144000", "171519.148000", "171519.151000", "171519.154000", "171519.157000", "171559.087000", "171559.091000", "171559.094000", "171559.097000", "171559.100000", "171559.104000", "171559.107000", "171559.110000", "171559.113000", "171559.117000", "171559.120000", "171559.123000", "171559.126000", "171559.130000", "171559.133000", "171559.136000", "171559.139000", "171559.143000", "171559.146000", "171559.149000", "171559.152000", "171559.156000", "171559.159000", "171559.162000", "171559.165000", "171559.169000", "171559.172000", "171559.175000", "171559.178000", "171639.087000", "171639.091000", "171639.094000", "171639.097000", "171639.100000", "171639.104000", "171639.107000", "171639.110000", "171639.128000", "171639.131000", "171639.135000", "171639.138000", "171639.141000", "171639.144000", "171639.148000", "171639.151000", "171639.154000", "171639.157000", "171639.161000", "171639.164000", "171639.168000", "171639.171000", "171639.174000", "171639.178000", "171639.181000", "171639.184000", "171639.187000", "171719.087000", "171719.091000", "171719.094000", "171719.097000", "171719.100000", "171719.104000", "171719.107000", "171719.110000", "171719.114000", "171719.117000", "171719.120000", "171719.123000", "171719.126000", "171719.130000", "171719.133000", "171719.136000", "171719.139000", "171719.143000", "171719.146000", "171719.149000", "171719.152000", "171719.156000", "171719.159000", "171719.162000", "171719.165000", "171719.168000", "171719.172000", "171759.087000", "171759.091000", "171759.094000", "171759.097000", "171759.101000", "171759.104000", "171759.107000", "171759.110000", "171759.114000", "171759.117000", "171759.120000", "171759.123000", "171759.127000", "171759.130000", "171759.133000", "171759.137000", "171759.140000", "171759.143000", "171759.146000", "171759.150000", "171759.153000", "171759.156000", "171759.159000", "171759.163000", "171759.166000", "171759.169000", "171759.172000", "171839.087000", "171839.091000", "171839.094000", "171839.097000", "171839.100000", "171839.104000", "171839.107000", "171839.110000", "171839.114000", "171839.117000", "171839.120000", "171839.123000", "171839.127000", "171839.130000", "171839.133000", "171839.136000", "171839.140000", "171839.143000", "171839.146000", "171839.149000", "171839.153000", "171839.156000", "171839.159000", "171839.162000", "171839.165000", "171839.169000", "171919.096000", "171919.100000", "171919.103000", "171919.106000", "171919.110000", "171919.113000", "171919.116000", "171919.119000", "171919.123000", "171919.126000", "171919.129000", "171919.132000", "171919.136000", "171919.139000", "171919.142000", "171919.145000", "171919.149000", "171919.152000", "171919.155000", "171919.158000", "171919.162000", "171919.165000", "171919.168000", "171919.171000", "171919.174000", "171919.178000", "171919.181000", "171959.086000", "171959.090000", "171959.093000", "171959.096000", "171959.100000", "171959.103000", "171959.106000", "171959.109000", "171959.113000", "171959.116000", "171959.119000", "171959.123000", "171959.126000", "171959.129000", "171959.132000", "171959.135000", "171959.139000", "171959.142000", "171959.145000", "171959.149000", "171959.152000", "171959.155000", "171959.158000", "171959.162000", "171959.165000", "171959.168000", "171959.171000", "172039.087000", "172039.091000", "172039.094000", "172039.097000", "172039.101000", "172039.104000", "172039.107000", "172039.111000", "172039.114000", "172039.117000", "172039.120000", "172039.124000", "172039.127000", "172039.130000", "172039.133000", "172039.137000", "172039.140000", "172039.143000", "172039.147000", "172039.150000", "172039.153000", "172039.156000", "172039.160000", "172039.163000", "172039.166000", "172039.169000", "172039.173000", "172119.087000", "172119.091000", "172119.094000", "172119.097000", "172119.100000", "172119.104000", "172119.107000", "172119.110000", "172119.113000", "172119.117000", "172119.120000", "172119.123000", "172119.126000", "172119.130000", "172119.133000", "172119.146000", "172119.150000", "172119.153000", "172119.156000", "172119.159000", "172119.162000", "172119.166000", "172119.169000", "172119.172000", "172119.175000", "172119.179000", "172119.182000", "172159.087000", "172159.091000", "172159.094000", "172159.097000", "172159.100000", "172159.104000", "172159.107000", "172159.110000", "172159.114000", "172159.117000", "172159.120000", "172159.123000", "172159.126000", "172159.130000", "172159.133000", "172159.136000", "172159.140000", "172159.143000", "172159.146000", "172159.149000", "172159.153000", "172159.156000", "172159.159000", "172159.162000", "172159.166000", "172159.169000", "172159.172000", "172239.087000", "172239.091000", "172239.094000", "172239.097000", "172239.101000", "172239.104000", "172239.107000", "172239.110000", "172239.114000", "172239.117000", "172239.120000", "172239.124000", "172239.127000", "172239.130000", "172239.133000", "172239.137000", "172239.140000", "172239.143000", "172239.146000", "172239.151000", "172239.154000", "172239.157000", "172239.161000", "172239.164000", "172239.167000", "172239.171000", "172239.174000", "172319.087000", "172319.091000", "172319.094000", "172319.097000", "172319.100000", "172319.104000", "172319.107000", "172319.110000", "172319.113000", "172319.117000", "172319.120000", "172319.123000", "172319.126000", "172319.130000", "172319.133000", "172319.136000", "172319.139000", "172319.143000", "172319.146000", "172319.149000", "172319.152000", "172319.156000", "172319.159000", "172319.162000", "172319.166000", "172319.169000", "172323.197000", "172323.201000", "172323.204000"],
