{
  "AcquisitionMatrixPE": 104,
  "AcquisitionNumber": 1,
  "AcquisitionTime": "18:30:6.070000",
  "BandwidthPerPixelPhaseEncode": 17.17,
  "BaseResolution": 104,
  "BodyPartExamined": "BRAIN",
  "CoilString": "HC1-7;NC1_2",
  "ConsistencyInfo": "N4_VE11C_LATEST_20160120",
  "ConversionSoftware": "dcm2niix",
  "ConversionSoftwareVersion": "v1.0.20190902",
  "DerivedVendorReportedEchoSpacing": 0.000560011,
  "DeviceSerialNumber": "167006",
  "DwellTime": 2.1e-06,
  "EchoTime": 0.037,
  "EchoTrainLength": 104,
  "EffectiveEchoSpacing": 0.000560011,
  "FlipAngle": 52,
  "HeudiconvVersion": "0.10.0",
  "ImageComments": "Unaliased_MB4_PE3_LB",
  "ImageOrientationPatientDICOM": [0.999697, 0.00233347, 0.0245177, 0.0038385, 0.968574, -0.248697],
  "ImageType": [
    "ORIGINAL",
    "PRIMARY",
    "M",
    "MB",
    "ND",
    "MOSAIC"
],
  "ImagingFrequency": 123.259,
  "InPlanePhaseEncodingDirectionDICOM": "COL",
  "InstitutionAddress": "Chemin_Queen-Mary_4565_Montreal_District_CA_H3W_1W5",
  "InstitutionName": "IUGM",
  "InstitutionalDepartmentName": "Department",
  "MRAcquisitionType": "2D",
  "MagneticFieldStrength": 3,
  "Manufacturer": "Siemens",
  "ManufacturersModelName": "Prisma_fit",
  "Modality": "MR",
  "MultibandAccelerationFactor": 4,
  "PartialFourier": 1,
  "PatientPosition": "HFS",
  "PercentPhaseFOV": 100,
  "PhaseEncodingDirection": "j",
  "PhaseEncodingSteps": 104,
  "PhaseResolution": 1,
  "PixelBandwidth": 2290,
  "ProcedureStepDescription": "games_mario",
  "ProtocolName": "func_task-mario_run-04",
  "PulseSequenceDetails": "%CustomerSeq%_cmrr_mbep2d_bold",
  "ReceiveCoilActiveElements": "HC1-7;NC1,2",
  "ReceiveCoilName": "HeadNeck_64",
  "ReconMatrixPE": 104,
  "RepetitionTime": 1.49,
  "SAR": 0.0561094,
  "ScanOptions": "FS",
  "ScanningSequence": "EP",
  "SequenceName": "epfid2d1_104",
  "SequenceVariant": "SK_SS",
  "SeriesDescription": "func_task-mario_run-04",
  "SeriesNumber": 19,
  "ShimSetting": [637, -7221, -8786, 718, 61, -21, 73, -13],
  "SliceThickness": 2,
  "SliceTiming": [0, 0.785, 0.0975, 0.8825, 0.1975, 0.98, 0.295, 1.0775, 0.3925, 1.1775, 0.49, 1.275, 0.5875, 1.3725, 0.6875, 0, 0.785, 0.0975, 0.8825, 0.1975, 0.98, 0.295, 1.0775, 0.3925, 1.1775, 0.49, 1.275, 0.5875, 1.3725, 0.6875, 0, 0.785, 0.0975, 0.8825, 0.1975, 0.98, 0.295, 1.0775, 0.3925, 1.1775, 0.49, 1.275, 0.5875, 1.3725, 0.6875, 0, 0.785, 0.0975, 0.8825, 0.1975, 0.98, 0.295, 1.0775, 0.3925, 1.1775, 0.49, 1.275, 0.5875, 1.3725, 0.6875],
  "SoftwareVersions": "syngo_MR_E11",
  "SpacingBetweenSlices": 2,
  "StationName": "MRC35049",
  "TaskName": "mario",
  "TotalReadoutTime": 0.0576811,
  "TxRefAmp": 254.387,
  "WipMemBlock": "6e9894c6-b631-4610-9d87-f7f65e43a5e3||Sequence: R016 ve11c/master r/e634e98; Dec 19 2017 11:00:25 by eja",
  "dcmmeta_affine": [
    [-1.999393343925476, 0.007677008863538504, 0.04865504056215286, 107.63700866699219],
    [-0.004666937980800867, 1.9371474981307983, -0.4974313974380493, -73.9923324584961],
    [0.04903538525104523, 0.49739402532577515, 1.93654203414917, -63.89531707763672],
    [0.0, 0.0, 0.0, 1.0]
],
  "dcmmeta_reorient_transform": [
    [0.0, -1.0, 0.0, 103.0],
    [1.0, 0.0, 0.0, 0.0],
    [0.0, 0.0, 1.0, 0.0],
    [0.0, 0.0, 0.0, 1.0]
],
  "dcmmeta_shape": [104, 104, 60, 497],
  "dcmmeta_slice_dim": 2,
  "dcmmeta_version": 0.6,
  "global": {
    "const": {
      "AcquisitionMatrix": [104, 0, 0, 104],
      "AngioFlag": "N",
      "BitsAllocated": 16,
      "BitsStored": 16,
      "BodyPartExamined": "BRAIN",
      "Columns": 832,
      "EchoNumbers": 1,
      "EchoTime": 37.0,
      "EchoTrainLength": 104,
      "FlipAngle": 52.0,
      "HighBit": 15,
      "ImageOrientationPatient": [0.99969667284572, 0.00233346893702, 0.02451769205956, 0.00383850450784, 0.96857372435547, -0.2486970172143],
      "ImagePositionPatient": [-839.00134617907, -832.35428837465, 150.53881641818],
      "ImageType": [
        "ORIGINAL",
        "PRIMARY",
        "M",
        "MB",
        "ND",
        "MOSAIC"
],
      "ImagedNucleus": "1H",
      "ImagingFrequency": 123.258931,
      "InPlanePhaseEncodingDirection": "COL",
      "MRAcquisitionType": "2D",
      "MagneticFieldStrength": 3.0,
      "Manufacturer": "SIEMENS",
      "ManufacturerModelName": "Prisma_fit",
      "Modality": "MR",
      "NumberOfAverages": 1.0,
      "NumberOfPhaseEncodingSteps": 104,
      "PercentPhaseFieldOfView": 100.0,
      "PercentSampling": 100.0,
      "PerformedProcedureStepStartTime": "172830.944000",
      "PhotometricInterpretation": "MONOCHROME2",
      "PixelBandwidth": 2290.0,
      "PixelRepresentation": 0,
      "PixelSpacing": [2.0, 2.0],
      "ProtocolName": "func_task-mario_run-04",
      "RepetitionTime": 1490.0,
      "Rows": 832,
      "SAR": 0.05610936334642,
      "SamplesPerPixel": 1,
      "ScanOptions": "FS",
      "ScanningSequence": "EP",
      "SequenceName": "epfid2d1_104",
      "SequenceVariant": [
        "SK",
        "SS"
],
      "SeriesDescription": "func_task-mario_run-04",
      "SeriesNumber": 19,
      "SeriesTime": "183130.534000",
      "SliceLocation": -40.846385319316,
      "SliceThickness": 2.0,
      "SmallestImagePixelValue": 0,
      "SoftwareVersions": "syngo MR E11",
      "SpacingBetweenSlices": 2.0000000422988,
      "SpecificCharacterSet": "ISO_IR 100",
      "StudyID": "1",
      "StudyTime": "172830.882000",
      "TransmitCoilName": "Body",
      "VariableFlipAngleFlag": "N",
      "WindowCenterWidthExplanation": "Algo1",
      "dBdt": 0.0},
    "slices": {}
  },
  "time": {
    "samples": {
      "AcquisitionNumber": [1, 2, 3, 4, 5, 6, 7, 8, 9, 10, 11, 12, 13, 14, 15, 16, 17, 18, 19, 20, 21, 22, 23, 24, 25, 26, 27, 28, 29, 30, 31, 32, 33, 34, 35, 36, 37, 38, 39, 40, 41, 42, 43, 44, 45, 46, 47, 48, 49, 50, 51, 52, 53, 54, 55, 56, 57, 58, 59, 60, 61, 62, 63, 64, 65, 66, 67, 68, 69, 70, 71, 72, 73, 74, 75, 76, 77, 78, 79, 80, 81, 82, 83, 84, 85, 86, 87, 88, 89, 90, 91, 92, 93, 94, 95, 96, 97, 98, 99, 100, 101, 102, 103, 104, 105, 106, 107, 108, 109, 110, 111, 112, 113, 114, 115, 116, 117, 118, 119, 120, 121, 122, 123, 124, 125, 126, 127, 128, 129, 130, 131, 132, 133, 134, 135, 136, 137, 138, 139, 140, 141, 142, 143, 144, 145, 146, 147, 148, 149, 150, 151, 152, 153, 154, 155, 156, 157, 158, 159, 160, 161, 162, 163, 164, 165, 166, 167, 168, 169, 170, 171, 172, 173, 174, 175, 176, 177, 178, 179, 180, 181, 182, 183, 184, 185, 186, 187, 188, 189, 190, 191, 192, 193, 194, 195, 196, 197, 198, 199, 200, 201, 202, 203, 204, 205, 206, 207, 208, 209, 210, 211, 212, 213, 214, 215, 216, 217, 218, 219, 220, 221, 222, 223, 224, 225, 226, 227, 228, 229, 230, 231, 232, 233, 234, 235, 236, 237, 238, 239, 240, 241, 242, 243, 244, 245, 246, 247, 248, 249, 250, 251, 252, 253, 254, 255, 256, 257, 258, 259, 260, 261, 262, 263, 264, 265, 266, 267, 268, 269, 270, 271, 272, 273, 274, 275, 276, 277, 278, 279, 280, 281, 282, 283, 284, 285, 286, 287, 288, 289, 290, 291, 292, 293, 294, 295, 296, 297, 298, 299, 300, 301, 302, 303, 304, 305, 306, 307, 308, 309, 310, 311, 312, 313, 314, 315, 316, 317, 318, 319, 320, 321, 322, 323, 324, 325, 326, 327, 328, 329, 330, 331, 332, 333, 334, 335, 336, 337, 338, 339, 340, 341, 342, 343, 344, 345, 346, 347, 348, 349, 350, 351, 352, 353, 354, 355, 356, 357, 358, 359, 360, 361, 362, 363, 364, 365, 366, 367, 368, 369, 370, 371, 372, 373, 374, 375, 376, 377, 378, 379, 380, 381, 382, 383, 384, 385, 386, 387, 388, 389, 390, 391, 392, 393, 394, 395, 396, 397, 398, 399, 400, 401, 402, 403, 404, 405, 406, 407, 408, 409, 410, 411, 412, 413, 414, 415, 416, 417, 418, 419, 420, 421, 422, 423, 424, 425, 426, 427, 428, 429, 430, 431, 432, 433, 434, 435, 436, 437, 438, 439, 440, 441, 442, 443, 444, 445, 446, 447, 448, 449, 450, 451, 452, 453, 454, 455, 456, 457, 458, 459, 460, 461, 462, 463, 464, 465, 466, 467, 468, 469, 470, 471, 472, 473, 474, 475, 476, 477, 478, 479, 480, 481, 482, 483, 484, 485, 486, 487, 488, 489, 490, 491, 492, 493, 494, 495, 496, 497],
      "AcquisitionTime": ["183006.070000", "183007.560000", "183009.050000", "183010.540000", "183012.030000", "183013.520000", "183015.010000", "183016.500000", "183017.990000", "183019.480000", "183020.970000", "183022.460000", "183023.950000", "183025.440000", "183026.930000", "183028.420000", "183029.910000", "183031.400000", "183032.890000", "183034.380000", "183035.870000", "183037.360000", "183038.850000", "183040.340000", "183041.830000", "183043.320000", "183044.810000", "183046.300000", "183047.790000", "183049.280000", "183050.770000", "183052.260000", "183053.750000", "183055.240000", "183056.730000", "183058.220000", "183059.710000", "183101.200000", "183102.690000", "183104.180000", "183105.670000", "183107.160000", "183108.650000", "183110.140000", "183111.630000", "183113.120000", "183114.610000", "183116.100000", "183117.590000", "183119.080000", "183120.570000", "183122.060000", "183123.550000", "183125.040000", "183126.530000", "183128.020000", "183129.510000", "183131.000000", "183132.490000", "183133.980000", "183135.470000", "183136.960000", "183138.450000", "183139.940000", "183141.430000", "183142.920000", "183144.410000", "183145.900000", "183147.390000", "183148.880000", "183150.370000", "183151.860000", "183153.350000", "183154.840000", "183156.330000", "183157.820000", "183159.310000", "183200.800000", "183202.290000", "183203.780000", "183205.270000", "183206.760000", "183208.250000", "183209.740000", "183211.230000", "183212.720000", "183214.210000", "183215.700000", "183217.190000", "183218.680000", "183220.170000", "183221.660000", "183223.150000", "183224.640000", "183226.130000", "183227.620000", "183229.110000", "183230.600000", "183232.090000", "183233.580000", "183235.070000", "183236.560000", "183238.050000", "183239.540000", "183241.030000", "183242.520000", "183244.010000", "183245.500000", "183246.990000", "183248.480000", "183249.970000", "183251.460000", "183252.950000", "183254.440000", "183255.930000", "183257.420000", "183258.910000", "183300.400000", "183301.890000", "183303.380000", "183304.870000", "183306.360000", "183307.850000", "183309.340000", "183310.830000", "183312.320000", "183313.810000", "183315.300000", "183316.790000", "183318.280000", "183319.770000", "183321.260000", "183322.750000", "183324.240000", "183325.730000", "183327.220000", "183328.710000", "183330.200000", "183331.690000", "183333.180000", "183334.670000", "183336.160000", "183337.650000", "183339.140000", "183340.630000", "183342.120000", "183343.610000", "183345.100000", "183346.590000", "183348.080000", "183349.570000", "183351.060000", "183352.550000", "183354.040000", "183355.530000", "183357.020000", "183358.510000", "183400.000000", "183401.490000", "183402.980000", "183404.470000", "183405.960000", "183407.450000", "183408.940000", "183410.430000", "183411.920000", "183413.410000", "183414.900000", "183416.390000", "183417.880000", "183419.370000", "183420.860000", "183422.350000", "183423.840000", "183425.330000", "183426.820000", "183428.310000", "183429.800000", "183431.290000", "183432.780000", "183434.270000", "183435.760000", "183437.250000", "183438.740000", "183440.230000", "183441.720000", "183443.210000", "183444.700000", "183446.190000", "183447.680000", "183449.170000", "183450.660000", "183452.150000", "183453.640000", "183455.130000", "183456.620000", "183458.110000", "183459.600000", "183501.090000", "183502.580000", "183504.070000", "183505.560000", "183507.050000", "183508.540000", "183510.030000", "183511.520000", "183513.010000", "183514.500000", "183515.990000", "183517.480000", "183518.970000", "183520.460000", "183521.950000", "183523.440000", "183524.930000", "183526.420000", "183527.910000", "183529.400000", "183530.890000", "183532.380000", "183533.870000", "183535.360000", "183536.850000", "183538.340000", "183539.830000", "183541.320000", "183542.810000", "183544.300000", "183545.790000", "183547.280000", "183548.770000", "183550.260000", "183551.750000", "183553.240000", "183554.730000", "183556.220000", "183557.710000", "183559.200000", "183600.690000", "183602.180000", "183603.670000", "183605.160000", "183606.650000", "183608.140000", "183609.630000", "183611.120000", "183612.610000", "183614.100000", "183615.590000", "183617.080000", "183618.570000", "183620.060000", "183621.550000", "183623.040000", "183624.530000", "183626.020000", "183627.510000", "183629.000000", "183630.490000", "183631.980000", "183633.470000", "183634.960000", "183636.450000", "183637.940000", "183639.430000", "183640.920000", "183642.410000", "183643.900000", "183645.390000", "183646.880000", "183648.370000", "183649.860000", "183651.350000", "183652.840000", "183654.330000", "183655.820000", "183657.310000", "183658.800000", "183700.290000", "183701.780000", "183703.270000", "183704.760000", "183706.250000", "183707.740000", "183709.230000", "183710.720000", "183712.210000", "183713.700000", "183715.190000", "183716.680000", "183718.170000", "183719.660000", "183721.150000", "183722.640000", "183724.130000", "183725.620000", "183727.110000", "183728.600000", "183730.090000", "183731.580000", "183733.070000", "183734.560000", "183736.050000", "183737.540000", "183739.030000", "183740.520000", "183742.010000", "183743.500000", "183744.990000", "183746.480000", "183747.970000", "183749.460000", "183750.950000", "183752.440000", "183753.930000", "183755.420000", "183756.910000", "183758.400000", "183759.890000", "183801.380000", "183802.870000", "183804.360000", "183805.850000", "183807.340000", "183808.830000", "183810.320000", "183811.810000", "183813.300000", "183814.790000", "183816.280000", "183817.770000", "183819.260000", "183820.750000", "183822.240000", "183823.730000", "183825.220000", "183826.710000", "183828.200000", "183829.690000", "183831.180000", "183832.670000", "183834.160000", "183835.650000", "183837.140000", "183838.630000", "183840.120000", "183841.610000", "183843.100000", "183844.590000", "183846.080000", "183847.570000", "183849.060000", "183850.550000", "183852.040000", "183853.530000", "183855.020000", "183856.510000", "183858.000000", "183859.490000", "183900.980000", "183902.470000", "183903.960000", "183905.450000", "183906.940000", "183908.430000", "183909.920000", "183911.410000", "183912.900000", "183914.390000", "183915.880000", "183917.370000", "183918.860000", "183920.350000", "183921.840000", "183923.330000", "183924.820000", "183926.310000", "183927.800000", "183929.290000", "183930.780000", "183932.270000", "183933.760000", "183935.250000", "183936.740000", "183938.230000", "183939.720000", "183941.210000", "183942.700000", "183944.190000", "183945.680000", "183947.170000", "183948.660000", "183950.150000", "183951.640000", "183953.130000", "183954.620000", "183956.110000", "183957.600000", "183959.090000", "184000.580000", "184002.070000", "184003.560000", "184005.050000", "184006.540000", "184008.030000", "184009.520000", "184011.010000", "184012.500000", "184013.990000", "184015.480000", "184016.970000", "184018.460000", "184019.950000", "184021.440000", "184022.930000", "184024.420000", "184025.910000", "184027.400000", "184028.890000", "184030.380000", "184031.870000", "184033.360000", "184034.850000", "184036.340000", "184037.830000", "184039.320000", "184040.810000", "184042.300000", "184043.790000", "184045.280000", "184046.770000", "184048.260000", "184049.750000", "184051.240000", "184052.730000", "184054.220000", "184055.710000", "184057.200000", "184058.690000", "184100.180000", "184101.670000", "184103.160000", "184104.650000", "184106.140000", "184107.630000", "184109.120000", "184110.610000", "184112.100000", "184113.590000", "184115.080000", "184116.570000", "184118.060000", "184119.550000", "184121.040000", "184122.530000", "184124.020000", "184125.510000", "184127.000000", "184128.490000", "184129.980000", "184131.470000", "184132.960000", "184134.450000", "184135.940000", "184137.430000", "184138.920000", "184140.410000", "184141.900000", "184143.390000", "184144.880000", "184146.370000", "184147.860000", "184149.350000", "184150.840000", "184152.330000", "184153.820000", "184155.310000", "184156.800000", "184158.290000", "184159.780000", "184201.270000", "184202.760000", "184204.250000", "184205.740000", "184207.230000", "184208.720000", "184210.210000", "184211.700000", "184213.190000", "184214.680000", "184216.170000", "184217.660000", "184219.150000", "184220.640000", "184222.130000", "184223.620000", "184225.110000"],
      "ContentTime": ["183130.537000", "183130.541000", "183130.545000", "183130.548000", "183130.551000", "183130.555000", "183130.558000", "183130.562000", "183130.565000", "183130.568000", "183130.572000", "183130.575000", "183130.579000", "183130.582000", "183130.586000", "183130.589000", "183130.592000", "183130.596000", "183130.599000", "183130.603000", "183130.606000", "183130.622000", "183130.626000", "183130.629000", "183130.632000", "183130.636000", "183130.639000", "183130.643000", "183130.646000", "183130.649000", "183150.500000", "183150.504000", "183150.507000", "183150.511000", "183150.514000", "183150.518000", "183150.521000", "183150.528000", "183150.531000", "183150.535000", "183150.538000", "183150.541000", "183150.545000", "183150.548000", "183150.552000", "183150.555000", "183150.558000", "183150.562000", "183150.565000", "183150.569000", "183210.499000", "183210.503000", "183210.506000", "183210.510000", "183210.513000", "183210.537000", "183210.541000", "183210.544000", "183210.547000", "183210.551000", "183210.554000", "183210.557000", "183210.561000", "183210.564000", "183210.568000", "183210.571000", "183210.575000", "183210.578000", "183210.581000", "183210.585000", "183230.501000", "183230.504000", "183230.508000", "183230.521000", "183230.524000", "183230.528000", "183230.531000", "183230.534000", "183230.538000", "183230.541000", "183230.545000", "183230.548000", "183230.551000", "183230.555000", "183230.558000", "183230.562000", "183230.565000", "183230.569000", "183230.572000", "183230.575000", "183310.500000", "183310.504000", "183310.507000", "183310.511000", "183310.514000", "183310.518000", "183310.521000", "183310.525000", "183310.528000", "183310.531000", "183310.535000", "183310.538000", "183310.542000", "183310.545000", "183310.549000", "183310.553000", "183310.556000", "183310.560000", "183310.563000", "183310.567000", "183310.570000", "183310.573000", "183310.577000", "183310.580000", "183310.584000", "183310.587000", "183310.590000", "183310.594000", "183310.597000", "183310.601000", "183310.604000", "183310.607000", "183310.611000", "183350.500000", "183350.504000", "183350.508000", "183350.511000", "183350.515000", "183350.518000", "183350.522000", "183350.525000", "183350.529000", "183350.532000", "183350.536000", "183350.539000", "183350.542000", "183350.546000", "183350.549000", "183350.553000", "183350.556000", "183350.560000", "183350.563000", "183350.566000", "183350.570000", "183350.573000", "183350.577000", "183350.580000", "183350.584000", "183350.587000", "183430.499000", "183430.503000", "183430.507000", "183430.510000", "183430.513000", "183430.517000", "183430.520000", "183430.524000", "183430.527000", "183430.530000", "183430.534000", "183430.537000", "183430.541000", "183430.544000", "183430.548000", "183430.551000", "183430.555000", "183430.558000", "183430.562000", "183430.565000", "183430.569000", "183430.572000", "183430.576000", "183430.579000", "183430.582000", "183430.586000", "183430.589000", "183510.500000", "183510.504000", "183510.508000", "183510.511000", "183510.515000", "183510.518000", "183510.521000", "183510.525000", "183510.528000", "183510.532000", "183510.535000", "183510.539000", "183510.557000", "183510.560000", "183510.564000", "183510.567000", "183510.571000", "183510.574000", "183510.578000", "183510.581000", "183510.585000", "183510.588000", "183510.591000", "183510.595000", "183510.599000", "183510.602000", "183510.606000", "183550.500000", "183550.504000", "183550.507000", "183550.511000", "183550.514000", "183550.518000", "183550.521000", "183550.525000", "183550.528000", "183550.532000", "183550.535000", "183550.539000", "183550.542000", "183550.545000", "183550.549000", "183550.552000", "183550.556000", "183550.559000", "183550.574000", "183550.577000", "183550.580000", "183550.584000", "183550.587000", "183550.591000", "183550.594000", "183550.598000", "183550.601000", "183630.499000", "183630.503000", "183630.506000", "183630.510000", "183630.513000", "183630.517000", "183630.520000", "183630.524000", "183630.527000", "183630.530000", "183630.534000", "183630.537000", "183630.541000", "183630.544000", "183630.548000", "183630.551000", "183630.554000", "183630.558000", "183630.561000", "183630.565000", "183630.568000", "183630.572000", "183630.575000", "183630.578000", "183630.582000", "183630.585000", "183630.589000", "183710.500000", "183710.504000", "183710.508000", "183710.511000", "183710.514000", "183710.518000", "183710.521000", "183710.525000", "183710.528000", "183710.532000", "183710.535000", "183710.539000", "183710.542000", "183710.546000", "183710.549000", "183710.552000", "183710.556000", "183710.559000", "183710.563000", "183710.566000", "183710.570000", "183710.573000", "183710.577000", "183710.580000", "183710.584000", "183710.587000", "183710.590000", "183750.501000", "183750.504000", "183750.508000", "183750.511000", "183750.515000", "183750.518000", "183750.521000", "183750.525000", "183750.528000", "183750.532000", "183750.535000", "183750.539000", "183750.542000", "183750.546000", "183750.549000", "183750.552000", "183750.556000", "183750.559000", "183750.563000", "183750.566000", "183750.570000", "183750.573000", "183750.576000", "183750.580000", "183750.583000", "183750.587000", "183750.590000", "183830.501000", "183830.504000", "183830.520000", "183830.524000", "183830.527000", "183830.531000", "183830.534000", "183830.537000", "183830.541000", "183830.544000", "183830.548000", "183830.551000", "183830.555000", "183830.558000", "183830.561000", "183830.565000", "183830.568000", "183830.573000", "183830.576000", "183830.580000", "183830.583000", "183830.587000", "183830.590000", "183830.594000", "183830.597000", "183830.600000", "183910.499000", "183910.503000", "183910.507000", "183910.510000", "183910.513000", "183910.517000", "183910.520000", "183910.524000", "183910.527000", "183910.530000", "183910.534000", "183910.537000", "183910.541000", "183910.544000", "183910.548000", "183910.551000", "183910.554000", "183910.558000", "183910.561000", "183910.565000", "183910.568000", "183910.572000", "183910.575000", "183910.578000", "183910.582000", "183910.585000", "183910.589000", "183950.500000", "183950.506000", "183950.509000", "183950.513000", "183950.516000", "183950.520000", "183950.523000", "183950.527000", "183950.530000", "183950.534000", "183950.537000", "183950.540000", "183950.544000", "183950.547000", "183950.551000", "183950.554000", "183950.558000", "183950.561000", "183950.564000", "183950.568000", "183950.571000", "183950.575000", "183950.578000", "183950.581000", "183950.585000", "183950.588000", "183950.592000", "184030.500000", "184030.504000", "184030.522000", "184030.525000", "184030.529000", "184030.532000", "184030.536000", "184030.539000", "184030.542000", "184030.546000", "184030.550000", "184030.553000", "184030.556000", "184030.560000", "184030.563000", "184030.567000", "184030.570000", "184030.585000", "184030.588000", "184030.592000", "184030.595000", "184030.599000", "184030.602000", "184030.606000", "184030.609000", "184030.613000", "184030.616000", "184110.499000", "184110.503000", "184110.507000", "184110.510000", "184110.514000", "184110.517000", "184110.520000", "184110.524000", "184110.527000", "184110.531000", "184110.534000", "184110.537000", "184110.541000", "184110.544000", "184110.548000", "184110.551000", "184110.554000", "184110.558000", "184110.561000", "184110.565000", "184110.568000", "184110.572000", "184110.575000", "184110.578000", "184110.582000", "184110.585000", "184110.589000", "184150.500000", "184150.504000", "184150.508000", "184150.511000", "184150.514000", "184150.518000", "184150.521000", "184150.525000", "184150.528000", "184150.532000", "184150.535000", "184150.538000", "184150.542000", "184150.545000", "184150.549000", "184150.552000", "184150.556000", "184150.559000", "184150.562000", "184150.566000", "184150.569000", "184150.573000", "184150.576000", "184150.580000", "184150.583000", "184150.587000", "184150.590000", "184229.013000", "184229.017000", "184229.021000", "184229.025000", "184229.028000", "184229.032000", "184229.035000", "184229.039000", "184229.042000", "184229.045000", "184229.049000", "184229.052000", "184229.056000", "184229.059000", "184229.062000", "184229.066000", "184229.069000", "184229.073000", "184229.076000", "184229.079000", "184229.083000", "184229.086000", "184229.089000", "184229.093000", "184229.096000"],
