{
  "AcquisitionMatrixPE": 104,
  "AcquisitionNumber": 1,
  "AcquisitionTime": "17:50:35.487500",
  "BandwidthPerPixelPhaseEncode": 17.17,
  "BaseResolution": 104,
  "BodyPartExamined": "BRAIN",
  "CoilString": "HC1-7;NC1_2",
  "ConsistencyInfo": "N4_VE11C_LATEST_20160120",
  "ConversionSoftware": "dcm2niix",
  "ConversionSoftwareVersion": "v1.0.20190902",
  "DerivedVendorReportedEchoSpacing": 0.000560011,
  "DeviceSerialNumber": "167006",
  "DwellTime": 2.1e-06,
  "EchoTime": 0.037,
  "EchoTrainLength": 104,
  "EffectiveEchoSpacing": 0.000560011,
  "FlipAngle": 52,
  "HeudiconvVersion": "0.10.0",
  "ImageComments": "Unaliased_MB4_PE3_LB",
  "ImageOrientationPatientDICOM": [0.999697, 0.00233347, 0.0245177, 0.0038385, 0.968574, -0.248697],
  "ImageType": [
    "ORIGINAL",
    "PRIMARY",
    "M",
    "MB",
    "ND",
    "MOSAIC"
],
  "ImagingFrequency": 123.259,
  "InPlanePhaseEncodingDirectionDICOM": "COL",
  "InstitutionAddress": "Chemin_Queen-Mary_4565_Montreal_District_CA_H3W_1W5",
  "InstitutionName": "IUGM",
  "InstitutionalDepartmentName": "Department",
  "MRAcquisitionType": "2D",
  "MagneticFieldStrength": 3,
  "Manufacturer": "Siemens",
  "ManufacturersModelName": "Prisma_fit",
  "Modality": "MR",
  "MultibandAccelerationFactor": 4,
  "PartialFourier": 1,
  "PatientPosition": "HFS",
  "PercentPhaseFOV": 100,
  "PhaseEncodingDirection": "j",
  "PhaseEncodingSteps": 104,
  "PhaseResolution": 1,
  "PixelBandwidth": 2290,
  "ProcedureStepDescription": "games_mario",
  "ProtocolName": "func_task-mario_run-01",
  "PulseSequenceDetails": "%CustomerSeq%_cmrr_mbep2d_bold",
  "ReceiveCoilActiveElements": "HC1-7;NC1,2",
  "ReceiveCoilName": "HeadNeck_64",
  "ReconMatrixPE": 104,
  "RepetitionTime": 1.49,
  "SAR": 0.0561094,
  "ScanOptions": "FS",
  "ScanningSequence": "EP",
  "SequenceName": "epfid2d1_104",
  "SequenceVariant": "SK_SS",
  "SeriesDescription": "func_task-mario_run-01",
  "SeriesNumber": 10,
  "ShimSetting": [637, -7221, -8786, 718, 61, -21, 73, -13],
  "SliceThickness": 2,
  "SliceTiming": [0, 0.785, 0.0975, 0.8825, 0.1975, 0.98, 0.295, 1.0775, 0.3925, 1.1775, 0.49, 1.275, 0.5875, 1.3725, 0.6875, 0, 0.785, 0.0975, 0.8825, 0.1975, 0.98, 0.295, 1.0775, 0.3925, 1.1775, 0.49, 1.275, 0.5875, 1.3725, 0.6875, 0, 0.785, 0.0975, 0.8825, 0.1975, 0.98, 0.295, 1.0775, 0.3925, 1.1775, 0.49, 1.275, 0.5875, 1.3725, 0.6875, 0, 0.785, 0.0975, 0.8825, 0.1975, 0.98, 0.295, 1.0775, 0.3925, 1.1775, 0.49, 1.275, 0.5875, 1.3725, 0.6875],
  "SoftwareVersions": "syngo_MR_E11",
  "SpacingBetweenSlices": 2,
  "StationName": "MRC35049",
  "TaskName": "mario",
  "TotalReadoutTime": 0.0576811,
  "TxRefAmp": 254.387,
  "WipMemBlock": "e404d51f-f41f-4a07-b717-f807d63608c7||Sequence: R016 ve11c/master r/e634e98; Dec 19 2017 11:00:25 by eja",
  "dcmmeta_affine": [
    [-1.999393343925476, 0.007677008863538504, 0.04865504056215286, 107.63700866699219],
    [-0.004666937980800867, 1.9371474981307983, -0.4974313974380493, -73.9923324584961],
    [0.04903538525104523, 0.49739402532577515, 1.93654203414917, -63.89531707763672],
    [0.0, 0.0, 0.0, 1.0]
],
  "dcmmeta_reorient_transform": [
    [0.0, -1.0, 0.0, 103.0],
    [1.0, 0.0, 0.0, 0.0],
    [0.0, 0.0, 1.0, 0.0],
    [0.0, 0.0, 0.0, 1.0]
],
  "dcmmeta_shape": [104, 104, 60, 447],
  "dcmmeta_slice_dim": 2,
  "dcmmeta_version": 0.6,
  "global": {
    "const": {
      "AcquisitionMatrix": [104, 0, 0, 104],
      "AngioFlag": "N",
      "BitsAllocated": 16,
      "BitsStored": 16,
      "BodyPartExamined": "BRAIN",
      "Columns": 832,
      "EchoNumbers": 1,
      "EchoTime": 37.0,
      "EchoTrainLength": 104,
      "FlipAngle": 52.0,
      "HighBit": 15,
      "ImageOrientationPatient": [0.99969667284572, 0.00233346893702, 0.02451769205956, 0.00383850450784, 0.96857372435547, -0.2486970172143],
      "ImagePositionPatient": [-839.00134617907, -832.35428837465, 150.53881641818],
      "ImageType": [
        "ORIGINAL",
        "PRIMARY",
        "M",
        "MB",
        "ND",
        "MOSAIC"
],
      "ImagedNucleus": "1H",
      "ImagingFrequency": 123.258906,
      "InPlanePhaseEncodingDirection": "COL",
      "MRAcquisitionType": "2D",
      "MagneticFieldStrength": 3.0,
      "Manufacturer": "SIEMENS",
      "ManufacturerModelName": "Prisma_fit",
      "Modality": "MR",
      "NumberOfAverages": 1.0,
      "NumberOfPhaseEncodingSteps": 104,
      "PercentPhaseFieldOfView": 100.0,
      "PercentSampling": 100.0,
      "PerformedProcedureStepStartTime": "172830.944000",
      "PhotometricInterpretation": "MONOCHROME2",
      "PixelBandwidth": 2290.0,
      "PixelRepresentation": 0,
      "PixelSpacing": [2.0, 2.0],
      "ProtocolName": "func_task-mario_run-01",
      "RepetitionTime": 1490.0,
      "Rows": 832,
      "SAR": 0.05610936334642,
      "SamplesPerPixel": 1,
      "ScanOptions": "FS",
      "ScanningSequence": "EP",
      "SequenceName": "epfid2d1_104",
      "SequenceVariant": [
        "SK",
        "SS"
],
      "SeriesDescription": "func_task-mario_run-01",
      "SeriesNumber": 10,
      "SeriesTime": "175150.531000",
      "SliceLocation": -40.846385319316,
      "SliceThickness": 2.0,
      "SmallestImagePixelValue": 0,
      "SoftwareVersions": "syngo MR E11",
      "SpacingBetweenSlices": 2.0000000422988,
      "SpecificCharacterSet": "ISO_IR 100",
      "StudyID": "1",
      "StudyTime": "172830.882000",
      "TransmitCoilName": "Body",
      "VariableFlipAngleFlag": "N",
      "WindowCenterWidthExplanation": "Algo1",
      "dBdt": 0.0},
    "slices": {}
  },
  "time": {
    "samples": {
      "AcquisitionNumber": [1, 2, 3, 4, 5, 6, 7, 8, 9, 10, 11, 12, 13, 14, 15, 16, 17, 18, 19, 20, 21, 22, 23, 24, 25, 26, 27, 28, 29, 30, 31, 32, 33, 34, 35, 36, 37, 38, 39, 40, 41, 42, 43, 44, 45, 46, 47, 48, 49, 50, 51, 52, 53, 54, 55, 56, 57, 58, 59, 60, 61, 62, 63, 64, 65, 66, 67, 68, 69, 70, 71, 72, 73, 74, 75, 76, 77, 78, 79, 80, 81, 82, 83, 84, 85, 86, 87, 88, 89, 90, 91, 92, 93, 94, 95, 96, 97, 98, 99, 100, 101, 102, 103, 104, 105, 106, 107, 108, 109, 110, 111, 112, 113, 114, 115, 116, 117, 118, 119, 120, 121, 122, 123, 124, 125, 126, 127, 128, 129, 130, 131, 132, 133, 134, 135, 136, 137, 138, 139, 140, 141, 142, 143, 144, 145, 146, 147, 148, 149, 150, 151, 152, 153, 154, 155, 156, 157, 158, 159, 160, 161, 162, 163, 164, 165, 166, 167, 168, 169, 170, 171, 172, 173, 174, 175, 176, 177, 178, 179, 180, 181, 182, 183, 184, 185, 186, 187, 188, 189, 190, 191, 192, 193, 194, 195, 196, 197, 198, 199, 200, 201, 202, 203, 204, 205, 206, 207, 208, 209, 210, 211, 212, 213, 214, 215, 216, 217, 218, 219, 220, 221, 222, 223, 224, 225, 226, 227, 228, 229, 230, 231, 232, 233, 234, 235, 236, 237, 238, 239, 240, 241, 242, 243, 244, 245, 246, 247, 248, 249, 250, 251, 252, 253, 254, 255, 256, 257, 258, 259, 260, 261, 262, 263, 264, 265, 266, 267, 268, 269, 270, 271, 272, 273, 274, 275, 276, 277, 278, 279, 280, 281, 282, 283, 284, 285, 286, 287, 288, 289, 290, 291, 292, 293, 294, 295, 296, 297, 298, 299, 300, 301, 302, 303, 304, 305, 306, 307, 308, 309, 310, 311, 312, 313, 314, 315, 316, 317, 318, 319, 320, 321, 322, 323, 324, 325, 326, 327, 328, 329, 330, 331, 332, 333, 334, 335, 336, 337, 338, 339, 340, 341, 342, 343, 344, 345, 346, 347, 348, 349, 350, 351, 352, 353, 354, 355, 356, 357, 358, 359, 360, 361, 362, 363, 364, 365, 366, 367, 368, 369, 370, 371, 372, 373, 374, 375, 376, 377, 378, 379, 380, 381, 382, 383, 384, 385, 386, 387, 388, 389, 390, 391, 392, 393, 394, 395, 396, 397, 398, 399, 400, 401, 402, 403, 404, 405, 406, 407, 408, 409, 410, 411, 412, 413, 414, 415, 416, 417, 418, 419, 420, 421, 422, 423, 424, 425, 426, 427, 428, 429, 430, 431, 432, 433, 434, 435, 436, 437, 438, 439, 440, 441, 442, 443, 444, 445, 446, 447],
      "AcquisitionTime": ["175035.487500", "175036.977500", "175038.467500", "175039.957500", "175041.447500", "175042.937500", "175044.427500", "175045.917500", "175047.407500", "175048.897500", "175050.387500", "175051.877500", "175053.367500", "175054.857500", "175056.347500", "175057.837500", "175059.327500", "175100.817500", "175102.307500", "175103.797500", "175105.287500", "175106.777500", "175108.267500", "175109.757500", "175111.247500", "175112.737500", "175114.227500", "175115.717500", "175117.207500", "175118.697500", "175120.187500", "175121.677500", "175123.167500", "175124.657500", "175126.147500", "175127.637500", "175129.127500", "175130.617500", "175132.107500", "175133.597500", "175135.087500", "175136.577500", "175138.067500", "175139.557500", "175141.047500", "175142.537500", "175144.027500", "175145.517500", "175147.007500", "175148.497500", "175149.987500", "175151.477500", "175152.967500", "175154.457500", "175155.947500", "175157.437500", "175158.927500", "175200.417500", "175201.907500", "175203.397500", "175204.887500", "175206.377500", "175207.867500", "175209.357500", "175210.847500", "175212.337500", "175213.827500", "175215.317500", "175216.807500", "175218.297500", "175219.787500", "175221.277500", "175222.767500", "175224.257500", "175225.747500", "175227.237500", "175228.727500", "175230.217500", "175231.707500", "175233.197500", "175234.687500", "175236.177500", "175237.667500", "175239.157500", "175240.647500", "175242.137500", "175243.627500", "175245.117500", "175246.607500", "175248.097500", "175249.587500", "175251.077500", "175252.567500", "175254.057500", "175255.547500", "175257.037500", "175258.527500", "175300.017500", "175301.507500", "175302.997500", "175304.487500", "175305.977500", "175307.467500", "175308.957500", "175310.447500", "175311.937500", "175313.427500", "175314.917500", "175316.407500", "175317.897500", "175319.387500", "175320.877500", "175322.367500", "175323.857500", "175325.347500", "175326.837500", "175328.327500", "175329.817500", "175331.307500", "175332.797500", "175334.287500", "175335.777500", "175337.267500", "175338.757500", "175340.247500", "175341.737500", "175343.227500", "175344.717500", "175346.207500", "175347.697500", "175349.187500", "175350.677500", "175352.167500", "175353.657500", "175355.147500", "175356.637500", "175358.127500", "175359.617500", "175401.107500", "175402.597500", "175404.087500", "175405.577500", "175407.067500", "175408.557500", "175410.047500", "175411.537500", "175413.027500", "175414.517500", "175416.007500", "175417.497500", "175418.987500", "175420.477500", "175421.967500", "175423.457500", "175424.947500", "175426.437500", "175427.927500", "175429.417500", "175430.907500", "175432.397500", "175433.887500", "175435.377500", "175436.867500", "175438.357500", "175439.847500", "175441.337500", "175442.827500", "175444.317500", "175445.807500", "175447.297500", "175448.787500", "175450.277500", "175451.767500", "175453.257500", "175454.747500", "175456.237500", "175457.727500", "175459.217500", "175500.707500", "175502.197500", "175503.687500", "175505.177500", "175506.667500", "175508.157500", "175509.647500", "175511.137500", "175512.627500", "175514.117500", "175515.607500", "175517.097500", "175518.587500", "175520.077500", "175521.567500", "175523.057500", "175524.547500", "175526.037500", "175527.527500", "175529.017500", "175530.507500", "175531.997500", "175533.487500", "175534.977500", "175536.467500", "175537.957500", "175539.447500", "175540.937500", "175542.427500", "175543.917500", "175545.407500", "175546.897500", "175548.387500", "175549.877500", "175551.367500", "175552.857500", "175554.347500", "175555.837500", "175557.327500", "175558.817500", "175600.307500", "175601.797500", "175603.287500", "175604.777500", "175606.267500", "175607.757500", "175609.247500", "175610.737500", "175612.227500", "175613.717500", "175615.207500", "175616.697500", "175618.187500", "175619.677500", "175621.167500", "175622.657500", "175624.147500", "175625.637500", "175627.127500", "175628.617500", "175630.107500", "175631.597500", "175633.087500", "175634.577500", "175636.067500", "175637.557500", "175639.047500", "175640.537500", "175642.027500", "175643.517500", "175645.007500", "175646.497500", "175647.987500", "175649.477500", "175650.967500", "175652.457500", "175653.947500", "175655.437500", "175656.927500", "175658.417500", "175659.907500", "175701.397500", "175702.887500", "175704.377500", "175705.867500", "175707.357500", "175708.847500", "175710.337500", "175711.827500", "175713.317500", "175714.807500", "175716.297500", "175717.787500", "175719.277500", "175720.767500", "175722.257500", "175723.747500", "175725.237500", "175726.727500", "175728.217500", "175729.707500", "175731.197500", "175732.687500", "175734.177500", "175735.667500", "175737.157500", "175738.647500", "175740.137500", "175741.627500", "175743.117500", "175744.607500", "175746.097500", "175747.587500", "175749.077500", "175750.567500", "175752.057500", "175753.547500", "175755.037500", "175756.527500", "175758.017500", "175759.507500", "175800.997500", "175802.487500", "175803.977500", "175805.467500", "175806.957500", "175808.447500", "175809.937500", "175811.427500", "175812.917500", "175814.407500", "175815.897500", "175817.387500", "175818.877500", "175820.367500", "175821.857500", "175823.347500", "175824.837500", "175826.327500", "175827.817500", "175829.307500", "175830.797500", "175832.287500", "175833.777500", "175835.267500", "175836.757500", "175838.247500", "175839.737500", "175841.227500", "175842.717500", "175844.207500", "175845.697500", "175847.187500", "175848.677500", "175850.167500", "175851.657500", "175853.147500", "175854.637500", "175856.127500", "175857.617500", "175859.107500", "175900.597500", "175902.087500", "175903.577500", "175905.067500", "175906.557500", "175908.047500", "175909.537500", "175911.027500", "175912.517500", "175914.007500", "175915.497500", "175916.987500", "175918.477500", "175919.967500", "175921.457500", "175922.947500", "175924.437500", "175925.927500", "175927.417500", "175928.907500", "175930.397500", "175931.887500", "175933.377500", "175934.867500", "175936.357500", "175937.847500", "175939.337500", "175940.827500", "175942.317500", "175943.807500", "175945.297500", "175946.787500", "175948.277500", "175949.767500", "175951.257500", "175952.747500", "175954.237500", "175955.727500", "175957.217500", "175958.707500", "180000.197500", "180001.687500", "180003.177500", "180004.667500", "180006.157500", "180007.647500", "180009.137500", "180010.627500", "180012.117500", "180013.607500", "180015.097500", "180016.587500", "180018.077500", "180019.567500", "180021.057500", "180022.547500", "180024.037500", "180025.527500", "180027.017500", "180028.507500", "180029.997500", "180031.487500", "180032.977500", "180034.467500", "180035.957500", "180037.447500", "180038.937500", "180040.427500", "180041.917500", "180043.407500", "180044.897500", "180046.387500", "180047.877500", "180049.367500", "180050.857500", "180052.347500", "180053.837500", "180055.327500", "180056.817500", "180058.307500", "180059.797500", "180101.287500", "180102.777500", "180104.267500", "180105.757500", "180107.247500", "180108.737500", "180110.227500", "180111.717500", "180113.207500", "180114.697500", "180116.187500", "180117.677500", "180119.167500", "180120.657500", "180122.147500", "180123.637500", "180125.127500", "180126.617500", "180128.107500", "180129.597500", "180131.087500", "180132.577500", "180134.067500", "180135.557500", "180137.047500", "180138.537500", "180140.027500"],
      "ContentTime": ["175150.535000", "175150.539000", "175150.542000", "175150.546000", "175150.549000", "175150.552000", "175150.556000", "175150.559000", "175150.563000", "175150.566000", "175150.570000", "175150.577000", "175150.581000", "175150.584000", "175150.588000", "175150.591000", "175150.594000", "175150.598000", "175150.601000", "175150.605000", "175150.608000", "175150.611000", "175210.500000", "175210.504000", "175210.507000", "175210.511000", "175210.514000", "175210.517000", "175210.521000", "175210.524000", "175210.527000", "175210.531000", "175210.534000", "175210.537000", "175210.541000", "175210.544000", "175210.548000", "175210.551000", "175210.555000", "175210.558000", "175210.561000", "175210.565000", "175230.499000", "175230.512000", "175230.515000", "175230.518000", "175230.522000", "175230.525000", "175230.528000", "175230.532000", "175230.535000", "175230.538000", "175230.542000", "175230.561000", "175230.564000", "175230.567000", "175230.571000", "175230.574000", "175230.578000", "175230.581000", "175230.584000", "175230.588000", "175250.499000", "175250.503000", "175250.507000", "175250.510000", "175250.514000", "175250.517000", "175250.521000", "175250.525000", "175250.528000", "175250.532000", "175250.536000", "175250.539000", "175250.543000", "175250.546000", "175250.550000", "175250.553000", "175250.556000", "175250.560000", "175250.563000", "175250.566000", "175310.500000", "175310.504000", "175310.507000", "175310.511000", "175310.514000", "175310.518000", "175310.521000", "175310.524000", "175310.528000", "175310.531000", "175310.535000", "175310.538000", "175310.541000", "175310.545000", "175310.548000", "175310.552000", "175310.555000", "175310.559000", "175310.562000", "175310.565000", "175310.569000", "175350.500000", "175350.504000", "175350.508000", "175350.511000", "175350.514000", "175350.518000", "175350.521000", "175350.525000", "175350.528000", "175350.531000", "175350.535000", "175350.538000", "175350.542000", "175350.545000", "175350.548000", "175350.552000", "175350.555000", "175350.558000", "175350.562000", "175350.565000", "175350.569000", "175350.572000", "175350.576000", "175350.579000", "175350.582000", "175350.586000", "175350.589000", "175430.500000", "175430.504000", "175430.508000", "175430.511000", "175430.515000", "175430.518000", "175430.521000", "175430.525000", "175430.528000", "175430.532000", "175430.535000", "175430.539000", "175430.542000", "175430.545000", "175430.549000", "175430.552000", "175430.556000", "175430.559000", "175430.563000", "175430.566000", "175430.569000", "175430.573000", "175430.576000", "175430.580000", "175430.583000", "175430.600000", "175430.604000", "175510.499000", "175510.503000", "175510.507000", "175510.510000", "175510.514000", "175510.517000", "175510.520000", "175510.524000", "175510.527000", "175510.531000", "175510.534000", "175510.538000", "175510.541000", "175510.544000", "175510.548000", "175510.551000", "175510.555000", "175510.558000", "175510.561000", "175510.565000", "175510.568000", "175510.572000", "175510.575000", "175510.579000", "175510.582000", "175510.585000", "175510.589000", "175550.500000", "175550.504000", "175550.508000", "175550.511000", "175550.514000", "175550.518000", "175550.521000", "175550.525000", "175550.528000", "175550.532000", "175550.535000", "175550.539000", "175550.542000", "175550.545000", "175550.556000", "175550.559000", "175550.563000", "175550.566000", "175550.570000", "175550.573000", "175550.577000", "175550.580000", "175550.584000", "175550.587000", "175550.591000", "175550.594000", "175550.598000", "175630.500000", "175630.504000", "175630.508000", "175630.511000", "175630.514000", "175630.518000", "175630.521000", "175630.525000", "175630.528000", "175630.532000", "175630.535000", "175630.538000", "175630.542000", "175630.545000", "175630.549000", "175630.552000", "175630.556000", "175630.559000", "175630.563000", "175630.566000", "175630.569000", "175630.573000", "175630.576000", "175630.580000", "175630.583000", "175630.587000", "175630.590000", "175710.499000", "175710.503000", "175710.507000", "175710.510000", "175710.514000", "175710.517000", "175710.521000", "175710.524000", "175710.528000", "175710.531000", "175710.535000", "175710.538000", "175710.542000", "175710.545000", "175710.554000", "175710.557000", "175710.574000", "175710.578000", "175710.581000", "175710.585000", "175710.588000", "175710.592000", "175710.595000", "175710.599000", "175710.602000", "175710.606000", "175750.501000", "175750.504000", "175750.508000", "175750.511000", "175750.515000", "175750.518000", "175750.522000", "175750.525000", "175750.528000", "175750.532000", "175750.535000", "175750.539000", "175750.542000", "175750.545000", "175750.549000", "175750.552000", "175750.556000", "175750.559000", "175750.563000", "175750.566000", "175750.570000", "175750.573000", "175750.576000", "175750.580000", "175750.583000", "175750.587000", "175750.590000", "175830.501000", "175830.505000", "175830.508000", "175830.512000", "175830.515000", "175830.518000", "175830.522000", "175830.525000", "175830.529000", "175830.532000", "175830.536000", "175830.539000", "175830.542000", "175830.546000", "175830.549000", "175830.552000", "175830.556000", "175830.559000", "175830.563000", "175830.566000", "175830.570000", "175830.573000", "175830.577000", "175830.580000", "175830.584000", "175830.587000", "175830.591000", "175910.500000", "175910.504000", "175910.508000", "175910.511000", "175910.515000", "175910.518000", "175910.522000", "175910.525000", "175910.528000", "175910.532000", "175910.535000", "175910.539000", "175910.542000", "175910.546000", "175910.549000", "175910.552000", "175910.556000", "175910.559000", "175910.563000", "175910.566000", "175910.570000", "175910.573000", "175910.577000", "175910.580000", "175910.584000", "175910.587000", "175910.591000", "175950.500000", "175950.504000", "175950.508000", "175950.511000", "175950.515000", "175950.518000", "175950.521000", "175950.525000", "175950.528000", "175950.532000", "175950.535000", "175950.539000", "175950.542000", "175950.545000", "175950.549000", "175950.552000", "175950.556000", "175950.559000", "175950.563000", "175950.566000", "175950.570000", "175950.573000", "175950.577000", "175950.580000", "175950.584000", "175950.587000", "175950.590000", "180030.500000", "180030.504000", "180030.508000", "180030.511000", "180030.514000", "180030.518000", "180030.521000", "180030.525000", "180030.528000", "180030.532000", "180030.535000", "180030.538000", "180030.543000", "180030.547000", "180030.550000", "180030.553000", "180030.557000", "180030.560000", "180030.564000", "180030.567000", "180030.571000", "180030.574000", "180030.578000", "180030.581000", "180030.585000", "180030.588000", "180030.591000", "180110.501000", "180110.505000", "180110.509000", "180110.513000", "180110.517000", "180110.520000", "180110.523000", "180110.527000", "180110.531000", "180110.534000", "180110.537000", "180110.541000", "180110.544000", "180110.548000", "180110.551000", "180110.554000", "180110.558000", "180110.561000", "180110.565000", "180110.568000", "180110.572000", "180110.575000", "180110.579000", "180110.582000", "180110.585000", "180110.589000", "180143.096000", "180143.100000", "180143.103000", "180143.107000", "180143.111000", "180143.114000", "180143.118000", "180143.121000", "180143.125000", "180143.138000", "180143.142000", "180143.145000", "180143.149000", "180143.152000", "180143.156000", "180143.159000", "180143.162000", "180143.166000", "180143.169000", "180143.173000", "180143.176000", "180143.179000"],
