{
  "AcquisitionMatrixPE": 104,
  "AcquisitionNumber": 1,
  "AcquisitionTime": "18:16:9.070000",
  "BandwidthPerPixelPhaseEncode": 17.17,
  "BaseResolution": 104,
  "BodyPartExamined": "BRAIN",
  "CoilString": "HC1-7;NC1_2",
  "ConsistencyInfo": "N4_VE11C_LATEST_20160120",
  "ConversionSoftware": "dcm2niix",
  "ConversionSoftwareVersion": "v1.0.20190902",
  "DerivedVendorReportedEchoSpacing": 0.000560011,
  "DeviceSerialNumber": "167006",
  "DwellTime": 2.1e-06,
  "EchoTime": 0.037,
  "EchoTrainLength": 104,
  "EffectiveEchoSpacing": 0.000560011,
  "FlipAngle": 52,
  "HeudiconvVersion": "0.10.0",
  "ImageComments": "Unaliased_MB4_PE3_LB",
  "ImageOrientationPatientDICOM": [0.999697, 0.00233347, 0.0245177, 0.0038385, 0.968574, -0.248697],
  "ImageType": [
    "ORIGINAL",
    "PRIMARY",
    "P",
    "MB",
    "ND",
    "MOSAIC"
],
  "ImagingFrequency": 123.259,
  "InPlanePhaseEncodingDirectionDICOM": "COL",
  "InstitutionAddress": "Chemin_Queen-Mary_4565_Montreal_District_CA_H3W_1W5",
  "InstitutionName": "IUGM",
  "InstitutionalDepartmentName": "Department",
  "MRAcquisitionType": "2D",
  "MagneticFieldStrength": 3,
  "Manufacturer": "Siemens",
  "ManufacturersModelName": "Prisma_fit",
  "Modality": "MR",
  "MultibandAccelerationFactor": 4,
  "PartialFourier": 1,
  "PatientPosition": "HFS",
  "PercentPhaseFOV": 100,
  "PhaseEncodingDirection": "j",
  "PhaseEncodingSteps": 104,
  "PhaseResolution": 1,
  "PixelBandwidth": 2290,
  "ProcedureStepDescription": "games_mario",
  "ProtocolName": "func_task-mario_run-03",
  "PulseSequenceDetails": "%CustomerSeq%_cmrr_mbep2d_bold",
  "ReceiveCoilActiveElements": "HC1-7;NC1,2",
  "ReceiveCoilName": "HeadNeck_64",
  "ReconMatrixPE": 104,
  "RepetitionTime": 1.49,
  "SAR": 0.0561094,
  "ScanOptions": "FS",
  "ScanningSequence": "EP",
  "SequenceName": "epfid2d1_104",
  "SequenceVariant": "SK_SS",
  "SeriesDescription": "func_task-mario_run-03",
  "SeriesNumber": 17,
  "ShimSetting": [637, -7221, -8786, 718, 61, -21, 73, -13],
  "SliceThickness": 2,
  "SliceTiming": [0, 0.7825, 0.0975, 0.88, 0.195, 0.9775, 0.2925, 1.0775, 0.39, 1.175, 0.4875, 1.2725, 0.5875, 1.37, 0.685, 0, 0.7825, 0.0975, 0.88, 0.195, 0.9775, 0.2925, 1.0775, 0.39, 1.175, 0.4875, 1.2725, 0.5875, 1.37, 0.685, 0, 0.7825, 0.0975, 0.88, 0.195, 0.9775, 0.2925, 1.0775, 0.39, 1.175, 0.4875, 1.2725, 0.5875, 1.37, 0.685, 0, 0.7825, 0.0975, 0.88, 0.195, 0.9775, 0.2925, 1.0775, 0.39, 1.175, 0.4875, 1.2725, 0.5875, 1.37, 0.685],
  "SoftwareVersions": "syngo_MR_E11",
  "SpacingBetweenSlices": 2,
  "StationName": "MRC35049",
  "TaskName": "mario",
  "TotalReadoutTime": 0.0576811,
  "TxRefAmp": 254.387,
  "WipMemBlock": "45f05fa7-722a-44b3-836c-ae529a669d82||Sequence: R016 ve11c/master r/e634e98; Dec 19 2017 11:00:25 by eja",
  "dcmmeta_affine": [
    [-1.999393343925476, 0.007677008863538504, 0.04865504056215286, 107.63700866699219],
    [-0.004666937980800867, 1.9371474981307983, -0.4974313974380493, -73.9923324584961],
    [0.04903538525104523, 0.49739402532577515, 1.93654203414917, -63.89531707763672],
    [0.0, 0.0, 0.0, 1.0]
],
  "dcmmeta_reorient_transform": [
    [0.0, -1.0, 0.0, 103.0],
    [1.0, 0.0, 0.0, 0.0],
    [0.0, 0.0, 1.0, 0.0],
    [0.0, 0.0, 0.0, 1.0]
],
  "dcmmeta_shape": [104, 104, 60, 509],
  "dcmmeta_slice_dim": 2,
  "dcmmeta_version": 0.6,
  "global": {
    "const": {
      "AcquisitionMatrix": [104, 0, 0, 104],
      "AngioFlag": "N",
      "BitsAllocated": 16,
      "BitsStored": 16,
      "BodyPartExamined": "BRAIN",
      "Columns": 832,
      "EchoNumbers": 1,
      "EchoTime": 37.0,
      "EchoTrainLength": 104,
      "FlipAngle": 52.0,
      "HighBit": 15,
      "ImageOrientationPatient": [0.99969667284572, 0.00233346893702, 0.02451769205956, 0.00383850450784, 0.96857372435547, -0.2486970172143],
      "ImagePositionPatient": [-839.00134617907, -832.35428837465, 150.53881641818],
      "ImageType": [
        "ORIGINAL",
        "PRIMARY",
        "P",
        "MB",
        "ND",
        "MOSAIC"
],
      "ImagedNucleus": "1H",
      "ImagingFrequency": 123.258925,
      "InPlanePhaseEncodingDirection": "COL",
      "LargestImagePixelValue": 4095,
      "MRAcquisitionType": "2D",
      "MagneticFieldStrength": 3.0,
      "Manufacturer": "SIEMENS",
      "ManufacturerModelName": "Prisma_fit",
      "Modality": "MR",
      "NumberOfAverages": 1.0,
      "NumberOfPhaseEncodingSteps": 104,
      "PercentPhaseFieldOfView": 100.0,
      "PercentSampling": 100.0,
      "PerformedProcedureStepStartTime": "172830.944000",
      "PhotometricInterpretation": "MONOCHROME2",
      "PixelBandwidth": 2290.0,
      "PixelRepresentation": 0,
      "PixelSpacing": [2.0, 2.0],
      "ProtocolName": "func_task-mario_run-03",
      "RepetitionTime": 1490.0,
      "RescaleIntercept": -4096.0,
      "RescaleSlope": 2.0,
      "RescaleType": "US",
      "Rows": 832,
      "SAR": 0.05610936334642,
      "SamplesPerPixel": 1,
      "ScanOptions": "FS",
      "ScanningSequence": "EP",
      "SequenceName": "epfid2d1_104",
      "SequenceVariant": [
        "SK",
        "SS"
],
      "SeriesDescription": "func_task-mario_run-03",
      "SeriesNumber": 17,
      "SeriesTime": "181724.506000",
      "SliceLocation": -40.846385319316,
      "SliceThickness": 2.0,
      "SmallestImagePixelValue": 0,
      "SoftwareVersions": "syngo MR E11",
      "SpacingBetweenSlices": 2.0000000422988,
      "SpecificCharacterSet": "ISO_IR 100",
      "StudyID": "1",
      "StudyTime": "172830.882000",
      "TransmitCoilName": "Body",
      "VariableFlipAngleFlag": "N",
      "WindowCenterWidthExplanation": "Algo1",
      "dBdt": 0.0},
    "slices": {}
  },
  "time": {
    "samples": {
      "AcquisitionNumber": [1, 2, 3, 4, 5, 6, 7, 8, 9, 10, 11, 12, 13, 14, 15, 16, 17, 18, 19, 20, 21, 22, 23, 24, 25, 26, 27, 28, 29, 30, 31, 32, 33, 34, 35, 36, 37, 38, 39, 40, 41, 42, 43, 44, 45, 46, 47, 48, 49, 50, 51, 52, 53, 54, 55, 56, 57, 58, 59, 60, 61, 62, 63, 64, 65, 66, 67, 68, 69, 70, 71, 72, 73, 74, 75, 76, 77, 78, 79, 80, 81, 82, 83, 84, 85, 86, 87, 88, 89, 90, 91, 92, 93, 94, 95, 96, 97, 98, 99, 100, 101, 102, 103, 104, 105, 106, 107, 108, 109, 110, 111, 112, 113, 114, 115, 116, 117, 118, 119, 120, 121, 122, 123, 124, 125, 126, 127, 128, 129, 130, 131, 132, 133, 134, 135, 136, 137, 138, 139, 140, 141, 142, 143, 144, 145, 146, 147, 148, 149, 150, 151, 152, 153, 154, 155, 156, 157, 158, 159, 160, 161, 162, 163, 164, 165, 166, 167, 168, 169, 170, 171, 172, 173, 174, 175, 176, 177, 178, 179, 180, 181, 182, 183, 184, 185, 186, 187, 188, 189, 190, 191, 192, 193, 194, 195, 196, 197, 198, 199, 200, 201, 202, 203, 204, 205, 206, 207, 208, 209, 210, 211, 212, 213, 214, 215, 216, 217, 218, 219, 220, 221, 222, 223, 224, 225, 226, 227, 228, 229, 230, 231, 232, 233, 234, 235, 236, 237, 238, 239, 240, 241, 242, 243, 244, 245, 246, 247, 248, 249, 250, 251, 252, 253, 254, 255, 256, 257, 258, 259, 260, 261, 262, 263, 264, 265, 266, 267, 268, 269, 270, 271, 272, 273, 274, 275, 276, 277, 278, 279, 280, 281, 282, 283, 284, 285, 286, 287, 288, 289, 290, 291, 292, 293, 294, 295, 296, 297, 298, 299, 300, 301, 302, 303, 304, 305, 306, 307, 308, 309, 310, 311, 312, 313, 314, 315, 316, 317, 318, 319, 320, 321, 322, 323, 324, 325, 326, 327, 328, 329, 330, 331, 332, 333, 334, 335, 336, 337, 338, 339, 340, 341, 342, 343, 344, 345, 346, 347, 348, 349, 350, 351, 352, 353, 354, 355, 356, 357, 358, 359, 360, 361, 362, 363, 364, 365, 366, 367, 368, 369, 370, 371, 372, 373, 374, 375, 376, 377, 378, 379, 380, 381, 382, 383, 384, 385, 386, 387, 388, 389, 390, 391, 392, 393, 394, 395, 396, 397, 398, 399, 400, 401, 402, 403, 404, 405, 406, 407, 408, 409, 410, 411, 412, 413, 414, 415, 416, 417, 418, 419, 420, 421, 422, 423, 424, 425, 426, 427, 428, 429, 430, 431, 432, 433, 434, 435, 436, 437, 438, 439, 440, 441, 442, 443, 444, 445, 446, 447, 448, 449, 450, 451, 452, 453, 454, 455, 456, 457, 458, 459, 460, 461, 462, 463, 464, 465, 466, 467, 468, 469, 470, 471, 472, 473, 474, 475, 476, 477, 478, 479, 480, 481, 482, 483, 484, 485, 486, 487, 488, 489, 490, 491, 492, 493, 494, 495, 496, 497, 498, 499, 500, 501, 502, 503, 504, 505, 506, 507, 508, 509],
      "AcquisitionTime": ["181609.070000", "181610.560000", "181612.050000", "181613.540000", "181615.030000", "181616.520000", "181618.010000", "181619.500000", "181620.990000", "181622.480000", "181623.970000", "181625.460000", "181626.950000", "181628.440000", "181629.930000", "181631.420000", "181632.910000", "181634.400000", "181635.890000", "181637.380000", "181638.870000", "181640.360000", "181641.850000", "181643.340000", "181644.830000", "181646.320000", "181647.810000", "181649.300000", "181650.790000", "181652.280000", "181653.770000", "181655.260000", "181656.750000", "181658.240000", "181659.730000", "181701.220000", "181702.710000", "181704.200000", "181705.690000", "181707.180000", "181708.670000", "181710.160000", "181711.650000", "181713.140000", "181714.630000", "181716.120000", "181717.610000", "181719.100000", "181720.590000", "181722.080000", "181723.570000", "181725.060000", "181726.550000", "181728.040000", "181729.530000", "181731.020000", "181732.510000", "181734.000000", "181735.490000", "181736.980000", "181738.470000", "181739.960000", "181741.450000", "181742.940000", "181744.430000", "181745.920000", "181747.410000", "181748.900000", "181750.390000", "181751.880000", "181753.370000", "181754.860000", "181756.350000", "181757.840000", "181759.330000", "181800.820000", "181802.310000", "181803.800000", "181805.290000", "181806.780000", "181808.270000", "181809.760000", "181811.250000", "181812.740000", "181814.230000", "181815.720000", "181817.210000", "181818.700000", "181820.190000", "181821.680000", "181823.170000", "181824.660000", "181826.150000", "181827.640000", "181829.130000", "181830.620000", "181832.110000", "181833.600000", "181835.090000", "181836.580000", "181838.070000", "181839.560000", "181841.050000", "181842.540000", "181844.030000", "181845.520000", "181847.010000", "181848.500000", "181849.990000", "181851.480000", "181852.970000", "181854.460000", "181855.950000", "181857.440000", "181858.930000", "181900.420000", "181901.910000", "181903.400000", "181904.890000", "181906.380000", "181907.870000", "181909.360000", "181910.850000", "181912.340000", "181913.830000", "181915.320000", "181916.810000", "181918.300000", "181919.790000", "181921.280000", "181922.770000", "181924.260000", "181925.750000", "181927.240000", "181928.730000", "181930.220000", "181931.710000", "181933.200000", "181934.690000", "181936.180000", "181937.670000", "181939.160000", "181940.650000", "181942.140000", "181943.630000", "181945.120000", "181946.610000", "181948.100000", "181949.590000", "181951.080000", "181952.570000", "181954.060000", "181955.550000", "181957.040000", "181958.530000", "182000.020000", "182001.510000", "182003.000000", "182004.490000", "182005.980000", "182007.470000", "182008.960000", "182010.450000", "182011.940000", "182013.430000", "182014.920000", "182016.410000", "182017.900000", "182019.390000", "182020.880000", "182022.370000", "182023.860000", "182025.350000", "182026.840000", "182028.330000", "182029.820000", "182031.310000", "182032.800000", "182034.290000", "182035.780000", "182037.270000", "182038.760000", "182040.250000", "182041.740000", "182043.230000", "182044.720000", "182046.210000", "182047.700000", "182049.190000", "182050.680000", "182052.170000", "182053.660000", "182055.150000", "182056.640000", "182058.130000", "182059.620000", "182101.110000", "182102.600000", "182104.090000", "182105.580000", "182107.070000", "182108.560000", "182110.050000", "182111.540000", "182113.030000", "182114.520000", "182116.010000", "182117.500000", "182118.990000", "182120.480000", "182121.970000", "182123.460000", "182124.950000", "182126.440000", "182127.930000", "182129.420000", "182130.910000", "182132.400000", "182133.890000", "182135.380000", "182136.870000", "182138.360000", "182139.850000", "182141.340000", "182142.830000", "182144.320000", "182145.810000", "182147.300000", "182148.790000", "182150.280000", "182151.770000", "182153.260000", "182154.750000", "182156.240000", "182157.730000", "182159.220000", "182200.710000", "182202.200000", "182203.690000", "182205.180000", "182206.670000", "182208.160000", "182209.650000", "182211.140000", "182212.630000", "182214.120000", "182215.610000", "182217.100000", "182218.590000", "182220.080000", "182221.570000", "182223.060000", "182224.550000", "182226.040000", "182227.530000", "182229.020000", "182230.510000", "182232.000000", "182233.490000", "182234.980000", "182236.470000", "182237.960000", "182239.450000", "182240.940000", "182242.430000", "182243.920000", "182245.410000", "182246.900000", "182248.390000", "182249.880000", "182251.370000", "182252.860000", "182254.350000", "182255.840000", "182257.330000", "182258.820000", "182300.310000", "182301.800000", "182303.290000", "182304.780000", "182306.270000", "182307.760000", "182309.250000", "182310.740000", "182312.230000", "182313.720000", "182315.210000", "182316.700000", "182318.190000", "182319.680000", "182321.170000", "182322.660000", "182324.150000", "182325.640000", "182327.130000", "182328.620000", "182330.110000", "182331.600000", "182333.090000", "182334.580000", "182336.070000", "182337.560000", "182339.050000", "182340.540000", "182342.030000", "182343.520000", "182345.010000", "182346.500000", "182347.990000", "182349.480000", "182350.970000", "182352.460000", "182353.950000", "182355.440000", "182356.930000", "182358.420000", "182359.910000", "182401.400000", "182402.890000", "182404.380000", "182405.870000", "182407.360000", "182408.850000", "182410.340000", "182411.830000", "182413.320000", "182414.810000", "182416.300000", "182417.790000", "182419.280000", "182420.770000", "182422.260000", "182423.750000", "182425.240000", "182426.730000", "182428.220000", "182429.710000", "182431.200000", "182432.690000", "182434.180000", "182435.670000", "182437.160000", "182438.650000", "182440.140000", "182441.630000", "182443.120000", "182444.610000", "182446.100000", "182447.590000", "182449.080000", "182450.570000", "182452.060000", "182453.550000", "182455.040000", "182456.530000", "182458.020000", "182459.510000", "182501.000000", "182502.490000", "182503.980000", "182505.470000", "182506.960000", "182508.450000", "182509.940000", "182511.430000", "182512.920000", "182514.410000", "182515.900000", "182517.390000", "182518.880000", "182520.370000", "182521.860000", "182523.350000", "182524.840000", "182526.330000", "182527.820000", "182529.310000", "182530.800000", "182532.290000", "182533.780000", "182535.270000", "182536.760000", "182538.250000", "182539.740000", "182541.230000", "182542.720000", "182544.210000", "182545.700000", "182547.190000", "182548.680000", "182550.170000", "182551.660000", "182553.150000", "182554.640000", "182556.130000", "182557.620000", "182559.110000", "182600.600000", "182602.090000", "182603.580000", "182605.070000", "182606.560000", "182608.050000", "182609.540000", "182611.030000", "182612.520000", "182614.010000", "182615.500000", "182616.990000", "182618.480000", "182619.970000", "182621.460000", "182622.950000", "182624.440000", "182625.930000", "182627.420000", "182628.910000", "182630.400000", "182631.890000", "182633.380000", "182634.870000", "182636.360000", "182637.850000", "182639.340000", "182640.830000", "182642.320000", "182643.810000", "182645.300000", "182646.790000", "182648.280000", "182649.770000", "182651.260000", "182652.750000", "182654.240000", "182655.730000", "182657.220000", "182658.710000", "182700.200000", "182701.690000", "182703.180000", "182704.670000", "182706.160000", "182707.650000", "182709.140000", "182710.630000", "182712.120000", "182713.610000", "182715.100000", "182716.590000", "182718.080000", "182719.570000", "182721.060000", "182722.550000", "182724.040000", "182725.530000", "182727.020000", "182728.510000", "182730.000000", "182731.490000", "182732.980000", "182734.470000", "182735.960000", "182737.450000", "182738.940000", "182740.430000", "182741.920000", "182743.410000", "182744.900000", "182746.390000", "182747.880000", "182749.370000", "182750.860000", "182752.350000", "182753.840000", "182755.330000", "182756.820000", "182758.310000", "182759.800000", "182801.290000", "182802.780000", "182804.270000", "182805.760000", "182807.250000", "182808.740000", "182810.230000", "182811.720000", "182813.210000", "182814.700000", "182816.190000", "182817.680000", "182819.170000", "182820.660000", "182822.150000", "182823.640000", "182825.130000", "182826.620000", "182828.110000", "182829.600000", "182831.090000", "182832.580000", "182834.070000", "182835.560000", "182837.050000", "182838.540000", "182840.030000", "182841.520000", "182843.010000", "182844.500000", "182845.990000"],
      "ContentTime": ["181724.508000", "181724.511000", "181724.513000", "181724.516000", "181724.518000", "181724.521000", "181724.523000", "181724.526000", "181724.528000", "181724.531000", "181724.533000", "181724.536000", "181724.539000", "181724.541000", "181724.543000", "181724.553000", "181724.555000", "181724.558000", "181724.560000", "181724.566000", "181724.569000", "181744.460000", "181744.462000", "181744.465000", "181744.467000", "181744.470000", "181744.472000", "181744.476000", "181744.478000", "181744.481000", "181744.483000", "181744.486000", "181744.488000", "181744.491000", "181744.493000", "181744.496000", "181744.498000", "181744.501000", "181744.503000", "181744.506000", "181744.509000", "181744.511000", "181804.458000", "181804.461000", "181804.464000", "181804.466000", "181804.469000", "181804.471000", "181804.474000", "181804.476000", "181804.479000", "181804.481000", "181804.484000", "181804.486000", "181804.489000", "181804.497000", "181804.499000", "181804.502000", "181804.504000", "181804.507000", "181804.509000", "181804.512000", "181824.479000", "181824.482000", "181824.484000", "181824.487000", "181824.489000", "181824.492000", "181824.494000", "181824.497000", "181824.499000", "181824.502000", "181824.504000", "181824.507000", "181824.510000", "181824.512000", "181824.515000", "181824.518000", "181824.521000", "181824.524000", "181824.526000", "181824.529000", "181844.455000", "181844.458000", "181844.461000", "181844.464000", "181844.467000", "181844.469000", "181844.472000", "181844.474000", "181844.477000", "181844.479000", "181844.482000", "181844.484000", "181844.487000", "181844.489000", "181844.492000", "181844.495000", "181844.497000", "181844.500000", "181844.502000", "181844.505000", "181924.509000", "181924.512000", "181924.515000", "181924.517000", "181924.520000", "181924.522000", "181924.525000", "181924.527000", "181924.530000", "181924.532000", "181924.535000", "181924.537000", "181924.547000", "181924.550000", "181924.553000", "181924.555000", "181924.558000", "181924.560000", "181924.563000", "181924.565000", "181924.568000", "181924.571000", "181924.573000", "181924.576000", "181924.579000", "181924.581000", "181924.584000", "181924.586000", "182004.494000", "182004.497000", "182004.499000", "182004.502000", "182004.504000", "182004.507000", "182004.509000", "182004.512000", "182004.514000", "182004.517000", "182004.519000", "182004.522000", "182004.524000", "182004.527000", "182004.530000", "182004.533000", "182004.536000", "182004.539000", "182004.541000", "182004.544000", "182004.546000", "182004.549000", "182004.552000", "182004.554000", "182004.557000", "182004.560000", "182004.562000", "182044.519000", "182044.521000", "182044.524000", "182044.527000", "182044.529000", "182044.532000", "182044.534000", "182044.537000", "182044.539000", "182044.542000", "182044.545000", "182044.547000", "182044.550000", "182044.552000", "182044.555000", "182044.557000", "182044.560000", "182044.562000", "182044.565000", "182044.567000", "182044.570000", "182044.573000", "182044.575000", "182044.578000", "182044.580000", "182044.583000", "182044.585000", "182124.493000", "182124.496000", "182124.498000", "182124.501000", "182124.503000", "182124.506000", "182124.508000", "182124.511000", "182124.513000", "182124.516000", "182124.519000", "182124.521000", "182124.524000", "182124.526000", "182124.529000", "182124.531000", "182124.534000", "182124.536000", "182124.539000", "182124.541000", "182124.544000", "182124.546000", "182124.549000", "182124.552000", "182124.554000", "182124.558000", "182124.560000", "182204.500000", "182204.503000", "182204.506000", "182204.508000", "182204.511000", "182204.513000", "182204.516000", "182204.518000", "182204.521000", "182204.523000", "182204.526000", "182204.528000", "182204.531000", "182204.533000", "182204.536000", "182204.539000", "182204.541000", "182204.544000", "182204.546000", "182204.549000", "182204.551000", "182204.554000", "182204.556000", "182204.559000", "182204.561000", "182204.564000", "182204.566000", "182244.485000", "182244.488000", "182244.490000", "182244.493000", "182244.496000", "182244.498000", "182244.501000", "182244.503000", "182244.506000", "182244.508000", "182244.511000", "182244.513000", "182244.516000", "182244.518000", "182244.521000", "182244.523000", "182244.526000", "182244.528000", "182244.531000", "182244.533000", "182244.536000", "182244.538000", "182244.541000", "182244.544000", "182244.546000", "182244.549000", "182244.551000", "182324.504000", "182324.507000", "182324.510000", "182324.512000", "182324.515000", "182324.517000", "182324.520000", "182324.522000", "182324.525000", "182324.527000", "182324.530000", "182324.532000", "182324.535000", "182324.537000", "182324.540000", "182324.543000", "182324.545000", "182324.548000", "182324.550000", "182324.553000", "182324.555000", "182324.558000", "182324.560000", "182324.563000", "182324.565000", "182324.568000", "182324.570000", "182404.496000", "182404.499000", "182404.502000", "182404.504000", "182404.507000", "182404.509000", "182404.512000", "182404.514000", "182404.517000", "182404.519000", "182404.522000", "182404.525000", "182404.527000", "182404.530000", "182404.532000", "182404.535000", "182404.537000", "182404.540000", "182404.543000", "182404.545000", "182404.548000", "182404.550000", "182404.553000", "182404.556000", "182404.558000", "182404.561000", "182444.498000", "182444.501000", "182444.503000", "182444.506000", "182444.509000", "182444.511000", "182444.514000", "182444.516000", "182444.519000", "182444.521000", "182444.524000", "182444.526000", "182444.529000", "182444.531000", "182444.534000", "182444.536000", "182444.539000", "182444.542000", "182444.544000", "182444.547000", "182444.549000", "182444.559000", "182444.561000", "182444.564000", "182444.566000", "182444.569000", "182444.572000", "182524.506000", "182524.509000", "182524.511000", "182524.514000", "182524.517000", "182524.519000", "182524.522000", "182524.524000", "182524.527000", "182524.529000", "182524.532000", "182524.534000", "182524.537000", "182524.539000", "182524.542000", "182524.545000", "182524.547000", "182524.550000", "182524.552000", "182524.555000", "182524.557000", "182524.560000", "182524.562000", "182524.565000", "182524.567000", "182524.570000", "182524.573000", "182604.504000", "182604.507000", "182604.509000", "182604.512000", "182604.514000", "182604.517000", "182604.519000", "182604.522000", "182604.524000", "182604.527000", "182604.529000", "182604.532000", "182604.534000", "182604.537000", "182604.539000", "182604.542000", "182604.545000", "182604.547000", "182604.550000", "182604.552000", "182604.555000", "182604.557000", "182604.560000", "182604.562000", "182604.565000", "182604.567000", "182604.570000", "182644.495000", "182644.498000", "182644.500000", "182644.503000", "182644.505000", "182644.508000", "182644.510000", "182644.513000", "182644.515000", "182644.518000", "182644.520000", "182644.523000", "182644.525000", "182644.528000", "182644.531000", "182644.533000", "182644.536000", "182644.538000", "182644.541000", "182644.543000", "182644.546000", "182644.548000", "182644.551000", "182644.554000", "182644.556000", "182644.559000", "182644.561000", "182724.492000", "182724.494000", "182724.497000", "182724.499000", "182724.502000", "182724.505000", "182724.508000", "182724.510000", "182724.513000", "182724.515000", "182724.518000", "182724.520000", "182724.523000", "182724.525000", "182724.528000", "182724.531000", "182724.533000", "182724.536000", "182724.538000", "182724.541000", "182724.543000", "182724.546000", "182724.548000", "182724.551000", "182724.553000", "182724.556000", "182724.558000", "182804.506000", "182804.509000", "182804.511000", "182804.514000", "182804.516000", "182804.519000", "182804.521000", "182804.524000", "182804.526000", "182804.529000", "182804.531000", "182804.534000", "182804.536000", "182804.539000", "182804.542000", "182804.544000", "182804.547000", "182804.549000", "182804.552000", "182804.554000", "182804.557000", "182804.559000", "182804.562000", "182804.565000", "182804.567000", "182804.570000", "182844.496000", "182844.499000", "182844.502000", "182844.504000", "182844.507000", "182844.509000", "182844.512000", "182844.514000", "182844.517000", "182844.519000", "182844.522000", "182844.524000", "182844.527000", "182844.530000", "182844.532000", "182844.536000", "182844.539000", "182844.542000", "182844.544000", "182844.547000", "182844.549000", "182844.552000", "182844.554000", "182844.557000", "182844.560000", "182844.562000", "182844.565000", "182848.199000", "182848.202000", "182848.205000"],
