{
  "AcquisitionMatrixPE": 104,
  "AcquisitionNumber": 1,
  "AcquisitionTime": "18:03:3.765000",
  "BandwidthPerPixelPhaseEncode": 17.17,
  "BaseResolution": 104,
  "BodyPartExamined": "BRAIN",
  "CoilString": "HC1-7;NC1_2",
  "ConsistencyInfo": "N4_VE11C_LATEST_20160120",
  "ConversionSoftware": "dcm2niix",
  "ConversionSoftwareVersion": "v1.0.20190902",
  "DerivedVendorReportedEchoSpacing": 0.000560011,
  "DeviceSerialNumber": "167006",
  "DwellTime": 2.1e-06,
  "EchoTime": 0.037,
  "EchoTrainLength": 104,
  "EffectiveEchoSpacing": 0.000560011,
  "FlipAngle": 52,
  "HeudiconvVersion": "0.10.0",
  "ImageComments": "Unaliased_MB4_PE3_LB",
  "ImageOrientationPatientDICOM": [0.999697, 0.00233347, 0.0245177, 0.0038385, 0.968574, -0.248697],
  "ImageType": [
    "ORIGINAL",
    "PRIMARY",
    "P",
    "MB",
    "ND",
    "MOSAIC"
],
  "ImagingFrequency": 123.259,
  "InPlanePhaseEncodingDirectionDICOM": "COL",
  "InstitutionAddress": "Chemin_Queen-Mary_4565_Montreal_District_CA_H3W_1W5",
  "InstitutionName": "IUGM",
  "InstitutionalDepartmentName": "Department",
  "MRAcquisitionType": "2D",
  "MagneticFieldStrength": 3,
  "Manufacturer": "Siemens",
  "ManufacturersModelName": "Prisma_fit",
  "Modality": "MR",
  "MultibandAccelerationFactor": 4,
  "PartialFourier": 1,
  "PatientPosition": "HFS",
  "PercentPhaseFOV": 100,
  "PhaseEncodingDirection": "j",
  "PhaseEncodingSteps": 104,
  "PhaseResolution": 1,
  "PixelBandwidth": 2290,
  "ProcedureStepDescription": "games_mario",
  "ProtocolName": "func_task-mario_run-02",
  "PulseSequenceDetails": "%CustomerSeq%_cmrr_mbep2d_bold",
  "ReceiveCoilActiveElements": "HC1-7;NC1,2",
  "ReceiveCoilName": "HeadNeck_64",
  "ReconMatrixPE": 104,
  "RepetitionTime": 1.49,
  "SAR": 0.0561094,
  "ScanOptions": "FS",
  "ScanningSequence": "EP",
  "SequenceName": "epfid2d1_104",
  "SequenceVariant": "SK_SS",
  "SeriesDescription": "func_task-mario_run-02",
  "SeriesNumber": 14,
  "ShimSetting": [637, -7221, -8786, 718, 61, -21, 73, -13],
  "SliceThickness": 2,
  "SliceTiming": [0, 0.785, 0.0975, 0.8825, 0.1975, 0.98, 0.295, 1.0775, 0.3925, 1.1775, 0.49, 1.275, 0.5875, 1.3725, 0.6875, 0, 0.785, 0.0975, 0.8825, 0.1975, 0.98, 0.295, 1.0775, 0.3925, 1.1775, 0.49, 1.275, 0.5875, 1.3725, 0.6875, 0, 0.785, 0.0975, 0.8825, 0.1975, 0.98, 0.295, 1.0775, 0.3925, 1.1775, 0.49, 1.275, 0.5875, 1.3725, 0.6875, 0, 0.785, 0.0975, 0.8825, 0.1975, 0.98, 0.295, 1.0775, 0.3925, 1.1775, 0.49, 1.275, 0.5875, 1.3725, 0.6875],
  "SoftwareVersions": "syngo_MR_E11",
  "SpacingBetweenSlices": 2,
  "StationName": "MRC35049",
  "TaskName": "mario",
  "TotalReadoutTime": 0.0576811,
  "TxRefAmp": 254.387,
  "WipMemBlock": "12c8061b-6529-4f09-89bb-7070c8ded499||Sequence: R016 ve11c/master r/e634e98; Dec 19 2017 11:00:25 by eja",
  "dcmmeta_affine": [
    [-1.999393343925476, 0.007677008863538504, 0.04865504056215286, 107.63700866699219],
    [-0.004666937980800867, 1.9371474981307983, -0.4974313974380493, -73.9923324584961],
    [0.04903538525104523, 0.49739402532577515, 1.93654203414917, -63.89531707763672],
    [0.0, 0.0, 0.0, 1.0]
],
  "dcmmeta_reorient_transform": [
    [0.0, -1.0, 0.0, 103.0],
    [1.0, 0.0, 0.0, 0.0],
    [0.0, 0.0, 1.0, 0.0],
    [0.0, 0.0, 0.0, 1.0]
],
  "dcmmeta_shape": [104, 104, 60, 474],
  "dcmmeta_slice_dim": 2,
  "dcmmeta_version": 0.6,
  "global": {
    "const": {
      "AcquisitionMatrix": [104, 0, 0, 104],
      "AngioFlag": "N",
      "BitsAllocated": 16,
      "BitsStored": 16,
      "BodyPartExamined": "BRAIN",
      "Columns": 832,
      "EchoNumbers": 1,
      "EchoTime": 37.0,
      "EchoTrainLength": 104,
      "FlipAngle": 52.0,
      "HighBit": 15,
      "ImageOrientationPatient": [0.99969667284572, 0.00233346893702, 0.02451769205956, 0.00383850450784, 0.96857372435547, -0.2486970172143],
      "ImagePositionPatient": [-839.00134617907, -832.35428837465, 150.53881641818],
      "ImageType": [
        "ORIGINAL",
        "PRIMARY",
        "P",
        "MB",
        "ND",
        "MOSAIC"
],
      "ImagedNucleus": "1H",
      "ImagingFrequency": 123.258918,
      "InPlanePhaseEncodingDirection": "COL",
      "LargestImagePixelValue": 4095,
      "MRAcquisitionType": "2D",
      "MagneticFieldStrength": 3.0,
      "Manufacturer": "SIEMENS",
      "ManufacturerModelName": "Prisma_fit",
      "Modality": "MR",
      "NumberOfAverages": 1.0,
      "NumberOfPhaseEncodingSteps": 104,
      "PercentPhaseFieldOfView": 100.0,
      "PercentSampling": 100.0,
      "PerformedProcedureStepStartTime": "172830.944000",
      "PhotometricInterpretation": "MONOCHROME2",
      "PixelBandwidth": 2290.0,
      "PixelRepresentation": 0,
      "PixelSpacing": [2.0, 2.0],
      "ProtocolName": "func_task-mario_run-02",
      "RepetitionTime": 1490.0,
      "RescaleIntercept": -4096.0,
      "RescaleSlope": 2.0,
      "RescaleType": "US",
      "Rows": 832,
      "SAR": 0.05610936334642,
      "SamplesPerPixel": 1,
      "ScanOptions": "FS",
      "ScanningSequence": "EP",
      "SequenceName": "epfid2d1_104",
      "SequenceVariant": [
        "SK",
        "SS"
],
      "SeriesDescription": "func_task-mario_run-02",
      "SeriesNumber": 14,
      "SeriesTime": "180405.559000",
      "SliceLocation": -40.846385319316,
      "SliceThickness": 2.0,
      "SmallestImagePixelValue": 0,
      "SoftwareVersions": "syngo MR E11",
      "SpacingBetweenSlices": 2.0000000422988,
      "SpecificCharacterSet": "ISO_IR 100",
      "StudyID": "1",
      "StudyTime": "172830.882000",
      "TransmitCoilName": "Body",
      "VariableFlipAngleFlag": "N",
      "WindowCenterWidthExplanation": "Algo1",
      "dBdt": 0.0},
    "slices": {}
  },
  "time": {
    "samples": {
      "AcquisitionNumber": [1, 2, 3, 4, 5, 6, 7, 8, 9, 10, 11, 12, 13, 14, 15, 16, 17, 18, 19, 20, 21, 22, 23, 24, 25, 26, 27, 28, 29, 30, 31, 32, 33, 34, 35, 36, 37, 38, 39, 40, 41, 42, 43, 44, 45, 46, 47, 48, 49, 50, 51, 52, 53, 54, 55, 56, 57, 58, 59, 60, 61, 62, 63, 64, 65, 66, 67, 68, 69, 70, 71, 72, 73, 74, 75, 76, 77, 78, 79, 80, 81, 82, 83, 84, 85, 86, 87, 88, 89, 90, 91, 92, 93, 94, 95, 96, 97, 98, 99, 100, 101, 102, 103, 104, 105, 106, 107, 108, 109, 110, 111, 112, 113, 114, 115, 116, 117, 118, 119, 120, 121, 122, 123, 124, 125, 126, 127, 128, 129, 130, 131, 132, 133, 134, 135, 136, 137, 138, 139, 140, 141, 142, 143, 144, 145, 146, 147, 148, 149, 150, 151, 152, 153, 154, 155, 156, 157, 158, 159, 160, 161, 162, 163, 164, 165, 166, 167, 168, 169, 170, 171, 172, 173, 174, 175, 176, 177, 178, 179, 180, 181, 182, 183, 184, 185, 186, 187, 188, 189, 190, 191, 192, 193, 194, 195, 196, 197, 198, 199, 200, 201, 202, 203, 204, 205, 206, 207, 208, 209, 210, 211, 212, 213, 214, 215, 216, 217, 218, 219, 220, 221, 222, 223, 224, 225, 226, 227, 228, 229, 230, 231, 232, 233, 234, 235, 236, 237, 238, 239, 240, 241, 242, 243, 244, 245, 246, 247, 248, 249, 250, 251, 252, 253, 254, 255, 256, 257, 258, 259, 260, 261, 262, 263, 264, 265, 266, 267, 268, 269, 270, 271, 272, 273, 274, 275, 276, 277, 278, 279, 280, 281, 282, 283, 284, 285, 286, 287, 288, 289, 290, 291, 292, 293, 294, 295, 296, 297, 298, 299, 300, 301, 302, 303, 304, 305, 306, 307, 308, 309, 310, 311, 312, 313, 314, 315, 316, 317, 318, 319, 320, 321, 322, 323, 324, 325, 326, 327, 328, 329, 330, 331, 332, 333, 334, 335, 336, 337, 338, 339, 340, 341, 342, 343, 344, 345, 346, 347, 348, 349, 350, 351, 352, 353, 354, 355, 356, 357, 358, 359, 360, 361, 362, 363, 364, 365, 366, 367, 368, 369, 370, 371, 372, 373, 374, 375, 376, 377, 378, 379, 380, 381, 382, 383, 384, 385, 386, 387, 388, 389, 390, 391, 392, 393, 394, 395, 396, 397, 398, 399, 400, 401, 402, 403, 404, 405, 406, 407, 408, 409, 410, 411, 412, 413, 414, 415, 416, 417, 418, 419, 420, 421, 422, 423, 424, 425, 426, 427, 428, 429, 430, 431, 432, 433, 434, 435, 436, 437, 438, 439, 440, 441, 442, 443, 444, 445, 446, 447, 448, 449, 450, 451, 452, 453, 454, 455, 456, 457, 458, 459, 460, 461, 462, 463, 464, 465, 466, 467, 468, 469, 470, 471, 472, 473, 474],
      "AcquisitionTime": ["180303.765000", "180305.255000", "180306.745000", "180308.235000", "180309.725000", "180311.215000", "180312.705000", "180314.195000", "180315.685000", "180317.175000", "180318.665000", "180320.155000", "180321.645000", "180323.135000", "180324.625000", "180326.115000", "180327.605000", "180329.095000", "180330.585000", "180332.075000", "180333.565000", "180335.055000", "180336.545000", "180338.035000", "180339.525000", "180341.015000", "180342.505000", "180343.995000", "180345.485000", "180346.975000", "180348.465000", "180349.955000", "180351.445000", "180352.935000", "180354.425000", "180355.915000", "180357.405000", "180358.895000", "180400.385000", "180401.875000", "180403.365000", "180404.855000", "180406.345000", "180407.835000", "180409.325000", "180410.815000", "180412.305000", "180413.795000", "180415.285000", "180416.775000", "180418.265000", "180419.755000", "180421.245000", "180422.735000", "180424.225000", "180425.715000", "180427.205000", "180428.695000", "180430.185000", "180431.675000", "180433.165000", "180434.655000", "180436.145000", "180437.635000", "180439.125000", "180440.615000", "180442.105000", "180443.595000", "180445.085000", "180446.575000", "180448.065000", "180449.555000", "180451.045000", "180452.535000", "180454.025000", "180455.515000", "180457.005000", "180458.495000", "180459.985000", "180501.475000", "180502.965000", "180504.455000", "180505.945000", "180507.435000", "180508.925000", "180510.415000", "180511.905000", "180513.395000", "180514.885000", "180516.375000", "180517.865000", "180519.355000", "180520.845000", "180522.335000", "180523.825000", "180525.315000", "180526.805000", "180528.295000", "180529.785000", "180531.275000", "180532.765000", "180534.255000", "180535.745000", "180537.235000", "180538.725000", "180540.215000", "180541.705000", "180543.195000", "180544.685000", "180546.175000", "180547.665000", "180549.155000", "180550.645000", "180552.135000", "180553.625000", "180555.115000", "180556.605000", "180558.095000", "180559.585000", "180601.075000", "180602.565000", "180604.055000", "180605.545000", "180607.035000", "180608.525000", "180610.015000", "180611.505000", "180612.995000", "180614.485000", "180615.975000", "180617.465000", "180618.955000", "180620.445000", "180621.935000", "180623.425000", "180624.915000", "180626.405000", "180627.895000", "180629.385000", "180630.875000", "180632.365000", "180633.855000", "180635.345000", "180636.835000", "180638.325000", "180639.815000", "180641.305000", "180642.795000", "180644.285000", "180645.775000", "180647.265000", "180648.755000", "180650.245000", "180651.735000", "180653.225000", "180654.715000", "180656.205000", "180657.695000", "180659.185000", "180700.675000", "180702.165000", "180703.655000", "180705.145000", "180706.635000", "180708.125000", "180709.615000", "180711.105000", "180712.595000", "180714.085000", "180715.575000", "180717.065000", "180718.555000", "180720.045000", "180721.535000", "180723.025000", "180724.515000", "180726.005000", "180727.495000", "180728.985000", "180730.475000", "180731.965000", "180733.455000", "180734.945000", "180736.435000", "180737.925000", "180739.415000", "180740.905000", "180742.395000", "180743.885000", "180745.375000", "180746.865000", "180748.355000", "180749.845000", "180751.335000", "180752.825000", "180754.315000", "180755.805000", "180757.295000", "180758.785000", "180800.275000", "180801.765000", "180803.255000", "180804.745000", "180806.235000", "180807.725000", "180809.215000", "180810.705000", "180812.195000", "180813.685000", "180815.175000", "180816.665000", "180818.155000", "180819.645000", "180821.135000", "180822.625000", "180824.115000", "180825.605000", "180827.095000", "180828.585000", "180830.075000", "180831.565000", "180833.055000", "180834.545000", "180836.035000", "180837.525000", "180839.015000", "180840.505000", "180841.995000", "180843.485000", "180844.975000", "180846.465000", "180847.955000", "180849.445000", "180850.935000", "180852.425000", "180853.915000", "180855.405000", "180856.895000", "180858.385000", "180859.875000", "180901.365000", "180902.855000", "180904.345000", "180905.835000", "180907.325000", "180908.815000", "180910.305000", "180911.795000", "180913.285000", "180914.775000", "180916.265000", "180917.755000", "180919.245000", "180920.735000", "180922.225000", "180923.715000", "180925.205000", "180926.695000", "180928.185000", "180929.675000", "180931.165000", "180932.655000", "180934.145000", "180935.635000", "180937.125000", "180938.615000", "180940.105000", "180941.595000", "180943.085000", "180944.575000", "180946.065000", "180947.555000", "180949.045000", "180950.535000", "180952.025000", "180953.515000", "180955.005000", "180956.495000", "180957.985000", "180959.475000", "181000.965000", "181002.455000", "181003.945000", "181005.435000", "181006.925000", "181008.415000", "181009.905000", "181011.395000", "181012.885000", "181014.375000", "181015.865000", "181017.355000", "181018.845000", "181020.335000", "181021.825000", "181023.315000", "181024.805000", "181026.295000", "181027.785000", "181029.275000", "181030.765000", "181032.255000", "181033.745000", "181035.235000", "181036.725000", "181038.215000", "181039.705000", "181041.195000", "181042.685000", "181044.175000", "181045.665000", "181047.155000", "181048.645000", "181050.135000", "181051.625000", "181053.115000", "181054.605000", "181056.095000", "181057.585000", "181059.075000", "181100.565000", "181102.055000", "181103.545000", "181105.035000", "181106.525000", "181108.015000", "181109.505000", "181110.995000", "181112.485000", "181113.975000", "181115.465000", "181116.955000", "181118.445000", "181119.935000", "181121.425000", "181122.915000", "181124.405000", "181125.895000", "181127.385000", "181128.875000", "181130.365000", "181131.855000", "181133.345000", "181134.835000", "181136.325000", "181137.815000", "181139.305000", "181140.795000", "181142.285000", "181143.775000", "181145.265000", "181146.755000", "181148.245000", "181149.735000", "181151.225000", "181152.715000", "181154.205000", "181155.695000", "181157.185000", "181158.675000", "181200.165000", "181201.655000", "181203.145000", "181204.635000", "181206.125000", "181207.615000", "181209.105000", "181210.595000", "181212.085000", "181213.575000", "181215.065000", "181216.555000", "181218.045000", "181219.535000", "181221.025000", "181222.515000", "181224.005000", "181225.495000", "181226.985000", "181228.475000", "181229.965000", "181231.455000", "181232.945000", "181234.435000", "181235.925000", "181237.415000", "181238.905000", "181240.395000", "181241.885000", "181243.375000", "181244.865000", "181246.355000", "181247.845000", "181249.335000", "181250.825000", "181252.315000", "181253.805000", "181255.295000", "181256.785000", "181258.275000", "181259.765000", "181301.255000", "181302.745000", "181304.235000", "181305.725000", "181307.215000", "181308.705000", "181310.195000", "181311.685000", "181313.175000", "181314.665000", "181316.155000", "181317.645000", "181319.135000", "181320.625000", "181322.115000", "181323.605000", "181325.095000", "181326.585000", "181328.075000", "181329.565000", "181331.055000", "181332.545000", "181334.035000", "181335.525000", "181337.015000", "181338.505000", "181339.995000", "181341.485000", "181342.975000", "181344.465000", "181345.955000", "181347.445000", "181348.935000", "181350.425000", "181351.915000", "181353.405000", "181354.895000", "181356.385000", "181357.875000", "181359.365000", "181400.855000", "181402.345000", "181403.835000", "181405.325000", "181406.815000", "181408.305000", "181409.795000", "181411.285000", "181412.775000", "181414.265000", "181415.755000", "181417.245000", "181418.735000", "181420.225000", "181421.715000", "181423.205000", "181424.695000", "181426.185000", "181427.675000", "181429.165000", "181430.655000", "181432.145000", "181433.635000", "181435.125000", "181436.615000", "181438.105000", "181439.595000", "181441.085000", "181442.575000", "181444.065000", "181445.555000", "181447.045000", "181448.535000"],
      "ContentTime": ["180405.561000", "180405.564000", "180405.567000", "180405.569000", "180405.572000", "180405.574000", "180405.577000", "180405.579000", "180405.582000", "180425.582000", "180425.584000", "180425.589000", "180425.592000", "180425.594000", "180425.597000", "180425.599000", "180425.602000", "180425.605000", "180425.607000", "180425.610000", "180425.612000", "180425.615000", "180425.617000", "180425.620000", "180425.622000", "180425.625000", "180425.627000", "180425.630000", "180425.632000", "180445.564000", "180445.567000", "180445.569000", "180445.572000", "180445.574000", "180445.577000", "180445.580000", "180445.582000", "180445.585000", "180445.587000", "180445.590000", "180445.592000", "180445.595000", "180445.597000", "180445.600000", "180445.602000", "180445.605000", "180445.607000", "180445.610000", "180445.612000", "180505.557000", "180505.560000", "180505.563000", "180505.568000", "180505.571000", "180505.573000", "180505.576000", "180505.578000", "180505.581000", "180505.583000", "180505.586000", "180505.588000", "180505.591000", "180505.593000", "180505.596000", "180505.598000", "180505.601000", "180505.603000", "180505.606000", "180505.609000", "180525.586000", "180525.588000", "180525.591000", "180525.593000", "180525.596000", "180525.599000", "180525.601000", "180525.604000", "180525.606000", "180525.609000", "180525.611000", "180525.614000", "180525.616000", "180525.619000", "180525.621000", "180525.624000", "180525.626000", "180525.629000", "180525.631000", "180525.634000", "180605.613000", "180605.616000", "180605.619000", "180605.621000", "180605.624000", "180605.626000", "180605.629000", "180605.632000", "180605.634000", "180605.637000", "180605.639000", "180605.642000", "180605.644000", "180605.647000", "180605.649000", "180605.652000", "180605.654000", "180605.657000", "180605.661000", "180605.663000", "180605.666000", "180605.668000", "180605.671000", "180605.674000", "180605.676000", "180605.679000", "180605.681000", "180605.684000", "180605.686000", "180605.689000", "180605.691000", "180605.694000", "180645.588000", "180645.591000", "180645.593000", "180645.596000", "180645.599000", "180645.601000", "180645.604000", "180645.606000", "180645.609000", "180645.611000", "180645.614000", "180645.616000", "180645.619000", "180645.621000", "180645.624000", "180645.626000", "180645.629000", "180645.631000", "180645.634000", "180645.636000", "180645.639000", "180645.642000", "180645.644000", "180645.647000", "180645.649000", "180645.654000", "180645.657000", "180725.591000", "180725.593000", "180725.596000", "180725.599000", "180725.601000", "180725.604000", "180725.606000", "180725.609000", "180725.612000", "180725.614000", "180725.617000", "180725.619000", "180725.622000", "180725.625000", "180725.627000", "180725.630000", "180725.633000", "180725.635000", "180725.638000", "180725.640000", "180725.643000", "180725.645000", "180725.648000", "180725.651000", "180725.653000", "180725.656000", "180805.592000", "180805.595000", "180805.598000", "180805.600000", "180805.603000", "180805.605000", "180805.608000", "180805.610000", "180805.613000", "180805.615000", "180805.618000", "180805.621000", "180805.623000", "180805.626000", "180805.628000", "180805.631000", "180805.633000", "180805.636000", "180805.638000", "180805.641000", "180805.643000", "180805.647000", "180805.650000", "180805.652000", "180805.655000", "180805.657000", "180805.660000", "180845.594000", "180845.597000", "180845.600000", "180845.602000", "180845.605000", "180845.607000", "180845.610000", "180845.612000", "180845.615000", "180845.617000", "180845.620000", "180845.622000", "180845.625000", "180845.628000", "180845.630000", "180845.633000", "180845.635000", "180845.638000", "180845.640000", "180845.643000", "180845.645000", "180845.648000", "180845.651000", "180845.653000", "180845.656000", "180845.658000", "180845.661000", "180925.602000", "180925.605000", "180925.607000", "180925.610000", "180925.612000", "180925.615000", "180925.617000", "180925.620000", "180925.622000", "180925.625000", "180925.628000", "180925.630000", "180925.633000", "180925.635000", "180925.638000", "180925.640000", "180925.643000", "180925.645000", "180925.648000", "180925.651000", "180925.653000", "180925.656000", "180925.658000", "180925.661000", "180925.663000", "180925.666000", "180925.669000", "181005.599000", "181005.602000", "181005.604000", "181005.607000", "181005.610000", "181005.612000", "181005.615000", "181005.617000", "181005.620000", "181005.622000", "181005.625000", "181005.627000", "181005.630000", "181005.633000", "181005.635000", "181005.638000", "181005.640000", "181005.643000", "181005.645000", "181005.648000", "181005.650000", "181005.653000", "181005.655000", "181005.658000", "181005.661000", "181005.664000", "181005.666000", "181045.601000", "181045.604000", "181045.606000", "181045.609000", "181045.612000", "181045.614000", "181045.617000", "181045.619000", "181045.622000", "181045.624000", "181045.627000", "181045.629000", "181045.632000", "181045.634000", "181045.637000", "181045.639000", "181045.642000", "181045.644000", "181045.647000", "181045.650000", "181045.652000", "181045.655000", "181045.657000", "181045.660000", "181045.662000", "181045.665000", "181045.667000", "181125.592000", "181125.595000", "181125.597000", "181125.600000", "181125.602000", "181125.605000", "181125.608000", "181125.610000", "181125.613000", "181125.615000", "181125.618000", "181125.620000", "181125.623000", "181125.625000", "181125.628000", "181125.631000", "181125.633000", "181125.636000", "181125.638000", "181125.641000", "181125.643000", "181125.646000", "181125.648000", "181125.651000", "181125.653000", "181125.656000", "181205.589000", "181205.592000", "181205.595000", "181205.598000", "181205.600000", "181205.603000", "181205.605000", "181205.608000", "181205.611000", "181205.613000", "181205.616000", "181205.618000", "181205.621000", "181205.623000", "181205.626000", "181205.629000", "181205.631000", "181205.634000", "181205.636000", "181205.639000", "181205.641000", "181205.644000", "181205.647000", "181205.649000", "181205.652000", "181205.655000", "181205.657000", "181245.609000", "181245.611000", "181245.614000", "181245.617000", "181245.619000", "181245.622000", "181245.624000", "181245.627000", "181245.629000", "181245.632000", "181245.634000", "181245.637000", "181245.640000", "181245.642000", "181245.645000", "181245.647000", "181245.650000", "181245.652000", "181245.655000", "181245.665000", "181245.668000", "181245.670000", "181245.673000", "181245.675000", "181245.678000", "181245.681000", "181245.683000", "181325.600000", "181325.603000", "181325.605000", "181325.608000", "181325.610000", "181325.613000", "181325.615000", "181325.618000", "181325.620000", "181325.623000", "181325.626000", "181325.628000", "181325.631000", "181325.633000", "181325.636000", "181325.638000", "181325.641000", "181325.644000", "181325.646000", "181325.649000", "181325.651000", "181325.654000", "181325.656000", "181325.659000", "181325.662000", "181325.664000", "181325.667000", "181405.597000", "181405.599000", "181405.602000", "181405.604000", "181405.607000", "181405.609000", "181405.612000", "181405.615000", "181405.617000", "181405.620000", "181405.622000", "181405.625000", "181405.627000", "181405.630000", "181405.632000", "181405.635000", "181405.638000", "181405.640000", "181405.643000", "181405.646000", "181405.648000", "181405.651000", "181405.653000", "181405.656000", "181405.659000", "181405.661000", "181405.664000", "181445.606000", "181445.608000", "181445.611000", "181445.613000", "181445.616000", "181445.619000", "181445.621000", "181445.624000", "181445.626000", "181445.629000", "181445.631000", "181445.634000", "181445.637000", "181445.639000", "181445.642000", "181445.644000", "181445.647000", "181445.649000", "181445.652000", "181445.654000", "181445.657000", "181445.659000", "181445.663000", "181445.666000", "181445.668000", "181445.671000", "181445.673000", "181451.349000", "181451.352000", "181451.354000", "181451.357000"],
