{
  "AcquisitionMatrixPE": 104,
  "AcquisitionNumber": 1,
  "AcquisitionTime": "15:41:32.747500",
  "BandwidthPerPixelPhaseEncode": 17.17,
  "BaseResolution": 104,
  "BodyPartExamined": "BRAIN",
  "CoilString": "HC1-7;NC1_2",
  "ConsistencyInfo": "N4_VE11C_LATEST_20160120",
  "ConversionSoftware": "dcm2niix",
  "ConversionSoftwareVersion": "v1.0.20190902",
  "DerivedVendorReportedEchoSpacing": 0.000560011,
  "DeviceSerialNumber": "167006",
  "DwellTime": 2.1e-06,
  "EchoTime": 0.037,
  "EchoTrainLength": 104,
  "EffectiveEchoSpacing": 0.000560011,
  "FlipAngle": 52,
  "HeudiconvVersion": "0.10.0",
  "ImageComments": "Unaliased_MB4_PE3_LB",
  "ImageOrientationPatientDICOM": [0.998219, -0.0519922, 0.0292474, 0.0586059, 0.946228, -0.318148],
  "ImageType": [
    "ORIGINAL",
    "PRIMARY",
    "M",
    "MB",
    "ND",
    "MOSAIC"
],
  "ImagingFrequency": 123.259,
  "InPlanePhaseEncodingDirectionDICOM": "COL",
  "InstitutionAddress": "Chemin_Queen-Mary_4565_Montreal_District_CA_H3W_1W5",
  "InstitutionName": "IUGM",
  "InstitutionalDepartmentName": "Department",
  "MRAcquisitionType": "2D",
  "MagneticFieldStrength": 3,
  "Manufacturer": "Siemens",
  "ManufacturersModelName": "Prisma_fit",
  "Modality": "MR",
  "MultibandAccelerationFactor": 4,
  "PartialFourier": 1,
  "PatientPosition": "HFS",
  "PercentPhaseFOV": 100,
  "PhaseEncodingDirection": "j",
  "PhaseEncodingSteps": 104,
  "PhaseResolution": 1,
  "PixelBandwidth": 2290,
  "ProcedureStepDescription": "games_mario",
  "ProtocolName": "func_task-mario_run-02",
  "PulseSequenceDetails": "%CustomerSeq%_cmrr_mbep2d_bold",
  "ReceiveCoilActiveElements": "HC1-7;NC1,2",
  "ReceiveCoilName": "HeadNeck_64",
  "ReconMatrixPE": 104,
  "RepetitionTime": 1.49,
  "SAR": 0.0448577,
  "ScanOptions": "FS",
  "ScanningSequence": "EP",
  "SequenceName": "epfid2d1_104",
  "SequenceVariant": "SK_SS",
  "SeriesDescription": "func_task-mario_run-02",
  "SeriesNumber": 13,
  "ShimSetting": [633, -7250, -8817, 639, 10, -212, -47, -5],
  "SliceThickness": 2,
  "SliceTiming": [0, 0.7825, 0.0975, 0.8825, 0.195, 0.98, 0.2925, 1.0775, 0.3925, 1.175, 0.49, 1.2725, 0.5875, 1.3725, 0.685, 0, 0.7825, 0.0975, 0.8825, 0.195, 0.98, 0.2925, 1.0775, 0.3925, 1.175, 0.49, 1.2725, 0.5875, 1.3725, 0.685, 0, 0.7825, 0.0975, 0.8825, 0.195, 0.98, 0.2925, 1.0775, 0.3925, 1.175, 0.49, 1.2725, 0.5875, 1.3725, 0.685, 0, 0.7825, 0.0975, 0.8825, 0.195, 0.98, 0.2925, 1.0775, 0.3925, 1.175, 0.49, 1.2725, 0.5875, 1.3725, 0.685],
  "SoftwareVersions": "syngo_MR_E11",
  "SpacingBetweenSlices": 2,
  "StationName": "MRC35049",
  "TaskName": "mario",
  "TotalReadoutTime": 0.0576811,
  "TxRefAmp": 243.746,
  "WipMemBlock": "3138e252-b82c-4705-b656-1ee50024431d||Sequence: R016 ve11c/master r/e634e98; Dec 19 2017 11:00:25 by eja",
  "dcmmeta_affine": [
    [-1.9964382648468018, 0.11721174418926239, 0.02226700447499752, 100.42766571044922],
    [0.10398446768522263, 1.8924559354782104, -0.638590395450592, -69.32792663574219],
    [0.05849481001496315, 0.63629549741745, 1.8951797485351562, -67.91820526123047],
    [0.0, 0.0, 0.0, 1.0]
],
  "dcmmeta_reorient_transform": [
    [0.0, -1.0, 0.0, 103.0],
    [1.0, 0.0, 0.0, 0.0],
    [0.0, 0.0, 1.0, 0.0],
    [0.0, 0.0, 0.0, 1.0]
],
  "dcmmeta_shape": [104, 104, 60, 462],
  "dcmmeta_slice_dim": 2,
  "dcmmeta_version": 0.6,
  "global": {
    "const": {
      "AcquisitionMatrix": [104, 0, 0, 104],
      "AngioFlag": "N",
      "BitsAllocated": 16,
      "BitsStored": 16,
      "BodyPartExamined": "BRAIN",
      "Columns": 832,
      "EchoNumbers": 1,
      "EchoTime": 37.0,
      "EchoTrainLength": 104,
      "FlipAngle": 52.0,
      "HighBit": 15,
      "ImageOrientationPatient": [0.99821911274336, -0.0519922321108, 0.02924740593637, 0.05860587062447, 0.94622796990962, -0.3181477343768],
      "ImagePositionPatient": [-881.86905937027, -776.59865060279, 207.93966585275],
      "ImageType": [
        "ORIGINAL",
        "PRIMARY",
        "M",
        "MB",
        "ND",
        "MOSAIC"
],
      "ImagedNucleus": "1H",
      "ImagingFrequency": 123.258933,
      "InPlanePhaseEncodingDirection": "COL",
      "MRAcquisitionType": "2D",
      "MagneticFieldStrength": 3.0,
      "Manufacturer": "SIEMENS",
      "ManufacturerModelName": "Prisma_fit",
      "Modality": "MR",
      "NumberOfAverages": 1.0,
      "NumberOfPhaseEncodingSteps": 104,
      "PercentPhaseFieldOfView": 100.0,
      "PercentSampling": 100.0,
      "PerformedProcedureStepStartTime": "150624.917000",
      "PhotometricInterpretation": "MONOCHROME2",
      "PixelBandwidth": 2290.0,
      "PixelRepresentation": 0,
      "PixelSpacing": [2.0, 2.0],
      "ProtocolName": "func_task-mario_run-02",
      "RepetitionTime": 1490.0,
      "Rows": 832,
      "SAR": 0.04485765371662,
      "SamplesPerPixel": 1,
      "ScanOptions": "FS",
      "ScanningSequence": "EP",
      "SequenceName": "epfid2d1_104",
      "SequenceVariant": [
        "SK",
        "SS"
],
      "SeriesDescription": "func_task-mario_run-02",
      "SeriesNumber": 13,
      "SeriesTime": "154242.972000",
      "SliceLocation": -41.104418482026,
      "SliceThickness": 2.0,
      "SmallestImagePixelValue": 0,
      "SoftwareVersions": "syngo MR E11",
      "SpacingBetweenSlices": 1.9999999573957,
      "SpecificCharacterSet": "ISO_IR 100",
      "StudyID": "1",
      "StudyTime": "150624.855000",
      "TransmitCoilName": "Body",
      "VariableFlipAngleFlag": "N",
      "WindowCenterWidthExplanation": "Algo1",
      "dBdt": 0.0},
    "slices": {}
  },
  "time": {
    "samples": {
      "AcquisitionNumber": [1, 2, 3, 4, 5, 6, 7, 8, 9, 10, 11, 12, 13, 14, 15, 16, 17, 18, 19, 20, 21, 22, 23, 24, 25, 26, 27, 28, 29, 30, 31, 32, 33, 34, 35, 36, 37, 38, 39, 40, 41, 42, 43, 44, 45, 46, 47, 48, 49, 50, 51, 52, 53, 54, 55, 56, 57, 58, 59, 60, 61, 62, 63, 64, 65, 66, 67, 68, 69, 70, 71, 72, 73, 74, 75, 76, 77, 78, 79, 80, 81, 82, 83, 84, 85, 86, 87, 88, 89, 90, 91, 92, 93, 94, 95, 96, 97, 98, 99, 100, 101, 102, 103, 104, 105, 106, 107, 108, 109, 110, 111, 112, 113, 114, 115, 116, 117, 118, 119, 120, 121, 122, 123, 124, 125, 126, 127, 128, 129, 130, 131, 132, 133, 134, 135, 136, 137, 138, 139, 140, 141, 142, 143, 144, 145, 146, 147, 148, 149, 150, 151, 152, 153, 154, 155, 156, 157, 158, 159, 160, 161, 162, 163, 164, 165, 166, 167, 168, 169, 170, 171, 172, 173, 174, 175, 176, 177, 178, 179, 180, 181, 182, 183, 184, 185, 186, 187, 188, 189, 190, 191, 192, 193, 194, 195, 196, 197, 198, 199, 200, 201, 202, 203, 204, 205, 206, 207, 208, 209, 210, 211, 212, 213, 214, 215, 216, 217, 218, 219, 220, 221, 222, 223, 224, 225, 226, 227, 228, 229, 230, 231, 232, 233, 234, 235, 236, 237, 238, 239, 240, 241, 242, 243, 244, 245, 246, 247, 248, 249, 250, 251, 252, 253, 254, 255, 256, 257, 258, 259, 260, 261, 262, 263, 264, 265, 266, 267, 268, 269, 270, 271, 272, 273, 274, 275, 276, 277, 278, 279, 280, 281, 282, 283, 284, 285, 286, 287, 288, 289, 290, 291, 292, 293, 294, 295, 296, 297, 298, 299, 300, 301, 302, 303, 304, 305, 306, 307, 308, 309, 310, 311, 312, 313, 314, 315, 316, 317, 318, 319, 320, 321, 322, 323, 324, 325, 326, 327, 328, 329, 330, 331, 332, 333, 334, 335, 336, 337, 338, 339, 340, 341, 342, 343, 344, 345, 346, 347, 348, 349, 350, 351, 352, 353, 354, 355, 356, 357, 358, 359, 360, 361, 362, 363, 364, 365, 366, 367, 368, 369, 370, 371, 372, 373, 374, 375, 376, 377, 378, 379, 380, 381, 382, 383, 384, 385, 386, 387, 388, 389, 390, 391, 392, 393, 394, 395, 396, 397, 398, 399, 400, 401, 402, 403, 404, 405, 406, 407, 408, 409, 410, 411, 412, 413, 414, 415, 416, 417, 418, 419, 420, 421, 422, 423, 424, 425, 426, 427, 428, 429, 430, 431, 432, 433, 434, 435, 436, 437, 438, 439, 440, 441, 442, 443, 444, 445, 446, 447, 448, 449, 450, 451, 452, 453, 454, 455, 456, 457, 458, 459, 460, 461, 462],
      "AcquisitionTime": ["154132.747500", "154134.237500", "154135.727500", "154137.217500", "154138.707500", "154140.197500", "154141.687500", "154143.177500", "154144.667500", "154146.157500", "154147.647500", "154149.137500", "154150.627500", "154152.117500", "154153.607500", "154155.097500", "154156.587500", "154158.077500", "154159.567500", "154201.057500", "154202.547500", "154204.037500", "154205.527500", "154207.017500", "154208.507500", "154209.997500", "154211.487500", "154212.977500", "154214.467500", "154215.957500", "154217.447500", "154218.937500", "154220.427500", "154221.917500", "154223.407500", "154224.897500", "154226.387500", "154227.877500", "154229.367500", "154230.857500", "154232.347500", "154233.837500", "154235.327500", "154236.817500", "154238.307500", "154239.797500", "154241.287500", "154242.777500", "154244.267500", "154245.757500", "154247.247500", "154248.737500", "154250.227500", "154251.717500", "154253.207500", "154254.697500", "154256.187500", "154257.677500", "154259.167500", "154300.657500", "154302.147500", "154303.637500", "154305.127500", "154306.617500", "154308.107500", "154309.597500", "154311.087500", "154312.577500", "154314.067500", "154315.557500", "154317.047500", "154318.537500", "154320.027500", "154321.517500", "154323.007500", "154324.497500", "154325.987500", "154327.477500", "154328.967500", "154330.457500", "154331.947500", "154333.437500", "154334.927500", "154336.417500", "154337.907500", "154339.397500", "154340.887500", "154342.377500", "154343.867500", "154345.357500", "154346.847500", "154348.337500", "154349.827500", "154351.317500", "154352.807500", "154354.297500", "154355.787500", "154357.277500", "154358.767500", "154400.257500", "154401.747500", "154403.237500", "154404.727500", "154406.217500", "154407.707500", "154409.197500", "154410.687500", "154412.177500", "154413.667500", "154415.157500", "154416.647500", "154418.137500", "154419.627500", "154421.117500", "154422.607500", "154424.097500", "154425.587500", "154427.077500", "154428.567500", "154430.057500", "154431.547500", "154433.037500", "154434.527500", "154436.017500", "154437.507500", "154438.997500", "154440.487500", "154441.977500", "154443.467500", "154444.957500", "154446.447500", "154447.937500", "154449.427500", "154450.917500", "154452.407500", "154453.897500", "154455.387500", "154456.877500", "154458.367500", "154459.857500", "154501.347500", "154502.837500", "154504.327500", "154505.817500", "154507.307500", "154508.797500", "154510.287500", "154511.777500", "154513.267500", "154514.757500", "154516.247500", "154517.737500", "154519.227500", "154520.717500", "154522.207500", "154523.697500", "154525.187500", "154526.677500", "154528.167500", "154529.657500", "154531.147500", "154532.637500", "154534.127500", "154535.617500", "154537.107500", "154538.597500", "154540.087500", "154541.577500", "154543.067500", "154544.557500", "154546.047500", "154547.537500", "154549.027500", "154550.517500", "154552.007500", "154553.497500", "154554.987500", "154556.477500", "154557.967500", "154559.457500", "154600.947500", "154602.437500", "154603.927500", "154605.417500", "154606.907500", "154608.397500", "154609.887500", "154611.377500", "154612.867500", "154614.357500", "154615.847500", "154617.337500", "154618.827500", "154620.317500", "154621.807500", "154623.297500", "154624.787500", "154626.277500", "154627.767500", "154629.257500", "154630.747500", "154632.237500", "154633.727500", "154635.217500", "154636.707500", "154638.197500", "154639.687500", "154641.177500", "154642.667500", "154644.157500", "154645.647500", "154647.137500", "154648.627500", "154650.117500", "154651.607500", "154653.097500", "154654.587500", "154656.077500", "154657.567500", "154659.057500", "154700.547500", "154702.037500", "154703.527500", "154705.017500", "154706.507500", "154707.997500", "154709.487500", "154710.977500", "154712.467500", "154713.957500", "154715.447500", "154716.937500", "154718.427500", "154719.917500", "154721.407500", "154722.897500", "154724.387500", "154725.877500", "154727.367500", "154728.857500", "154730.347500", "154731.837500", "154733.327500", "154734.817500", "154736.307500", "154737.797500", "154739.287500", "154740.777500", "154742.267500", "154743.757500", "154745.247500", "154746.737500", "154748.227500", "154749.717500", "154751.207500", "154752.697500", "154754.187500", "154755.677500", "154757.167500", "154758.657500", "154800.147500", "154801.637500", "154803.127500", "154804.617500", "154806.107500", "154807.597500", "154809.087500", "154810.577500", "154812.067500", "154813.557500", "154815.047500", "154816.537500", "154818.027500", "154819.517500", "154821.007500", "154822.497500", "154823.987500", "154825.477500", "154826.967500", "154828.457500", "154829.947500", "154831.437500", "154832.927500", "154834.417500", "154835.907500", "154837.397500", "154838.887500", "154840.377500", "154841.867500", "154843.357500", "154844.847500", "154846.337500", "154847.827500", "154849.317500", "154850.807500", "154852.297500", "154853.787500", "154855.277500", "154856.767500", "154858.257500", "154859.747500", "154901.237500", "154902.727500", "154904.217500", "154905.707500", "154907.197500", "154908.687500", "154910.177500", "154911.667500", "154913.157500", "154914.647500", "154916.137500", "154917.627500", "154919.117500", "154920.607500", "154922.097500", "154923.587500", "154925.077500", "154926.567500", "154928.057500", "154929.547500", "154931.037500", "154932.527500", "154934.017500", "154935.507500", "154936.997500", "154938.487500", "154939.977500", "154941.467500", "154942.957500", "154944.447500", "154945.937500", "154947.427500", "154948.917500", "154950.407500", "154951.897500", "154953.387500", "154954.877500", "154956.367500", "154957.857500", "154959.347500", "155000.837500", "155002.327500", "155003.817500", "155005.307500", "155006.797500", "155008.287500", "155009.777500", "155011.267500", "155012.757500", "155014.247500", "155015.737500", "155017.227500", "155018.717500", "155020.207500", "155021.697500", "155023.187500", "155024.677500", "155026.167500", "155027.657500", "155029.147500", "155030.637500", "155032.127500", "155033.617500", "155035.107500", "155036.597500", "155038.087500", "155039.577500", "155041.067500", "155042.557500", "155044.047500", "155045.537500", "155047.027500", "155048.517500", "155050.007500", "155051.497500", "155052.987500", "155054.477500", "155055.967500", "155057.457500", "155058.947500", "155100.437500", "155101.927500", "155103.417500", "155104.907500", "155106.397500", "155107.887500", "155109.377500", "155110.867500", "155112.357500", "155113.847500", "155115.337500", "155116.827500", "155118.317500", "155119.807500", "155121.297500", "155122.787500", "155124.277500", "155125.767500", "155127.257500", "155128.747500", "155130.237500", "155131.727500", "155133.217500", "155134.707500", "155136.197500", "155137.687500", "155139.177500", "155140.667500", "155142.157500", "155143.647500", "155145.137500", "155146.627500", "155148.117500", "155149.607500", "155151.097500", "155152.587500", "155154.077500", "155155.567500", "155157.057500", "155158.547500", "155200.037500", "155201.527500", "155203.017500", "155204.507500", "155205.997500", "155207.487500", "155208.977500", "155210.467500", "155211.957500", "155213.447500", "155214.937500", "155216.427500", "155217.917500", "155219.407500", "155220.897500", "155222.387500", "155223.877500", "155225.367500", "155226.857500", "155228.347500", "155229.837500", "155231.327500", "155232.817500", "155234.307500", "155235.797500", "155237.287500", "155238.777500", "155240.267500", "155241.757500", "155243.247500", "155244.737500", "155246.227500", "155247.717500", "155249.207500", "155250.697500", "155252.187500", "155253.677500", "155255.167500", "155256.657500", "155258.147500", "155259.637500"],
      "ContentTime": ["154242.975000", "154242.979000", "154242.982000", "154242.986000", "154242.989000", "154242.992000", "154242.996000", "154243.000000", "154243.003000", "154243.007000", "154243.010000", "154243.013000", "154243.016000", "154243.020000", "154243.023000", "154243.027000", "154302.940000", "154302.944000", "154302.948000", "154302.952000", "154302.956000", "154302.960000", "154302.963000", "154302.983000", "154302.986000", "154302.990000", "154302.994000", "154302.997000", "154303.001000", "154303.005000", "154303.008000", "154303.011000", "154303.014000", "154303.018000", "154303.021000", "154303.024000", "154322.939000", "154322.943000", "154322.946000", "154322.950000", "154322.953000", "154322.956000", "154322.959000", "154322.963000", "154322.966000", "154322.969000", "154322.972000", "154322.982000", "154322.986000", "154322.989000", "154322.992000", "154322.996000", "154323.000000", "154323.019000", "154323.022000", "154323.025000", "154323.028000", "154342.939000", "154342.943000", "154342.946000", "154342.949000", "154342.953000", "154342.956000", "154342.959000", "154342.963000", "154342.966000", "154342.970000", "154342.973000", "154342.976000", "154342.979000", "154342.983000", "154342.986000", "154342.990000", "154342.993000", "154342.996000", "154343.001000", "154343.004000", "154402.940000", "154402.944000", "154402.947000", "154402.950000", "154402.954000", "154402.957000", "154402.960000", "154402.964000", "154402.967000", "154402.971000", "154402.974000", "154402.977000", "154402.981000", "154402.984000", "154402.987000", "154402.991000", "154402.994000", "154402.997000", "154403.001000", "154403.004000", "154442.940000", "154442.944000", "154442.948000", "154442.951000", "154442.954000", "154442.958000", "154442.962000", "154442.967000", "154442.971000", "154442.976000", "154442.980000", "154442.983000", "154442.987000", "154442.990000", "154442.994000", "154442.997000", "154443.001000", "154443.005000", "154443.008000", "154443.011000", "154443.015000", "154443.018000", "154443.021000", "154443.025000", "154443.028000", "154443.031000", "154443.035000", "154443.038000", "154443.041000", "154522.940000", "154522.944000", "154522.947000", "154522.951000", "154522.954000", "154522.957000", "154522.961000", "154522.964000", "154522.967000", "154522.971000", "154522.974000", "154522.978000", "154522.981000", "154522.984000", "154522.987000", "154522.991000", "154522.994000", "154522.997000", "154523.002000", "154523.005000", "154523.009000", "154523.012000", "154523.015000", "154523.019000", "154523.022000", "154523.026000", "154523.029000", "154602.939000", "154602.943000", "154602.946000", "154602.950000", "154602.953000", "154602.957000", "154602.960000", "154602.963000", "154602.966000", "154602.970000", "154602.973000", "154602.977000", "154602.980000", "154602.983000", "154602.987000", "154602.990000", "154602.993000", "154602.997000", "154603.001000", "154603.004000", "154603.007000", "154603.011000", "154603.014000", "154603.017000", "154603.021000", "154603.024000", "154603.027000", "154642.940000", "154642.944000", "154642.947000", "154642.951000", "154642.954000", "154642.957000", "154642.961000", "154642.964000", "154642.968000", "154642.971000", "154642.974000", "154642.978000", "154642.981000", "154642.984000", "154642.987000", "154642.991000", "154642.994000", "154642.998000", "154643.002000", "154643.006000", "154643.009000", "154643.012000", "154643.015000", "154643.019000", "154643.022000", "154643.026000", "154643.029000", "154722.940000", "154722.944000", "154722.947000", "154722.951000", "154722.954000", "154722.957000", "154722.961000", "154722.964000", "154722.968000", "154722.971000", "154722.974000", "154722.978000", "154722.981000", "154722.985000", "154722.988000", "154722.991000", "154722.995000", "154722.998000", "154723.003000", "154723.006000", "154723.009000", "154723.013000", "154723.016000", "154723.019000", "154723.023000", "154723.026000", "154723.029000", "154802.939000", "154802.943000", "154802.946000", "154802.950000", "154802.953000", "154802.956000", "154802.960000", "154802.963000", "154802.966000", "154802.970000", "154802.973000", "154802.976000", "154802.980000", "154802.983000", "154802.987000", "154802.990000", "154802.993000", "154802.997000", "154803.000000", "154803.004000", "154803.007000", "154803.026000", "154803.029000", "154803.033000", "154803.036000", "154803.039000", "154803.043000", "154842.940000", "154842.944000", "154842.947000", "154842.951000", "154842.954000", "154842.958000", "154842.961000", "154842.964000", "154842.968000", "154842.971000", "154842.975000", "154842.978000", "154842.981000", "154842.985000", "154842.988000", "154842.992000", "154842.995000", "154842.998000", "154843.003000", "154843.006000", "154843.009000", "154843.013000", "154843.016000", "154843.020000", "154843.023000", "154843.026000", "154843.030000", "154922.940000", "154922.944000", "154922.947000", "154922.951000", "154922.954000", "154922.957000", "154922.961000", "154922.964000", "154922.967000", "154922.971000", "154922.974000", "154922.978000", "154922.981000", "154922.984000", "154922.988000", "154922.991000", "154922.995000", "154922.998000", "154923.002000", "154923.006000", "154923.009000", "154923.012000", "154923.016000", "154923.019000", "154923.022000", "154923.026000", "155002.940000", "155002.944000", "155002.947000", "155002.951000", "155002.954000", "155002.957000", "155002.961000", "155002.964000", "155002.968000", "155002.971000", "155002.974000", "155002.978000", "155002.981000", "155002.984000", "155002.987000", "155002.991000", "155002.994000", "155002.998000", "155003.002000", "155003.006000", "155003.009000", "155003.012000", "155003.015000", "155003.019000", "155003.022000", "155003.025000", "155003.029000", "155042.939000", "155042.943000", "155042.946000", "155042.950000", "155042.953000", "155042.957000", "155042.961000", "155042.964000", "155042.967000", "155042.971000", "155042.974000", "155042.978000", "155042.981000", "155042.984000", "155042.988000", "155042.991000", "155042.994000", "155042.998000", "155043.002000", "155043.006000", "155043.009000", "155043.012000", "155043.016000", "155043.019000", "155043.022000", "155043.026000", "155043.029000", "155122.942000", "155122.945000", "155122.949000", "155122.952000", "155122.956000", "155122.959000", "155122.962000", "155122.966000", "155122.969000", "155122.972000", "155122.976000", "155122.979000", "155122.982000", "155122.986000", "155122.989000", "155122.993000", "155122.996000", "155123.000000", "155123.003000", "155123.007000", "155123.010000", "155123.013000", "155123.017000", "155123.020000", "155123.024000", "155123.027000", "155123.030000", "155142.940000", "155142.944000", "155142.948000", "155142.951000", "155142.954000", "155142.958000", "155142.961000", "155142.964000", "155142.967000", "155142.971000", "155142.974000", "155142.978000", "155142.981000", "155222.940000", "155222.944000", "155222.947000", "155222.951000", "155222.954000", "155222.958000", "155222.961000", "155222.964000", "155222.968000", "155222.971000", "155222.974000", "155222.978000", "155222.981000", "155222.984000", "155222.988000", "155222.991000", "155222.995000", "155222.998000", "155223.002000", "155223.006000", "155223.009000", "155223.012000", "155223.016000", "155223.029000", "155223.033000", "155223.036000", "155223.039000", "155302.151000", "155302.155000", "155302.158000", "155302.162000", "155302.165000", "155302.169000", "155302.172000", "155302.175000", "155302.179000", "155302.182000", "155302.185000", "155302.189000", "155302.192000", "155302.196000", "155302.199000", "155302.202000", "155302.206000", "155302.209000", "155302.212000", "155302.216000", "155302.219000", "155302.222000", "155302.226000", "155302.229000", "155302.232000", "155302.236000", "155302.239000"],
