{
  "AcquisitionMatrixPE": 104,
  "AcquisitionNumber": 1,
  "AcquisitionTime": "16:08:55.175000",
  "BandwidthPerPixelPhaseEncode": 17.17,
  "BaseResolution": 104,
  "BodyPartExamined": "BRAIN",
  "CoilString": "HC1-7;NC1_2",
  "ConsistencyInfo": "N4_VE11C_LATEST_20160120",
  "ConversionSoftware": "dcm2niix",
  "ConversionSoftwareVersion": "v1.0.20190902",
  "DerivedVendorReportedEchoSpacing": 0.000560011,
  "DeviceSerialNumber": "167006",
  "DwellTime": 2.1e-06,
  "EchoTime": 0.037,
  "EchoTrainLength": 104,
  "EffectiveEchoSpacing": 0.000560011,
  "FlipAngle": 52,
  "HeudiconvVersion": "0.10.0",
  "ImageComments": "Unaliased_MB4_PE3_LB",
  "ImageOrientationPatientDICOM": [0.998219, -0.0519922, 0.0292474, 0.0586059, 0.946228, -0.318148],
  "ImageType": [
    "ORIGINAL",
    "PRIMARY",
    "P",
    "MB",
    "ND",
    "MOSAIC"
],
  "ImagingFrequency": 123.259,
  "InPlanePhaseEncodingDirectionDICOM": "COL",
  "InstitutionAddress": "Chemin_Queen-Mary_4565_Montreal_District_CA_H3W_1W5",
  "InstitutionName": "IUGM",
  "InstitutionalDepartmentName": "Department",
  "MRAcquisitionType": "2D",
  "MagneticFieldStrength": 3,
  "Manufacturer": "Siemens",
  "ManufacturersModelName": "Prisma_fit",
  "Modality": "MR",
  "MultibandAccelerationFactor": 4,
  "PartialFourier": 1,
  "PatientPosition": "HFS",
  "PercentPhaseFOV": 100,
  "PhaseEncodingDirection": "j",
  "PhaseEncodingSteps": 104,
  "PhaseResolution": 1,
  "PixelBandwidth": 2290,
  "ProcedureStepDescription": "games_mario",
  "ProtocolName": "func_task-mario_run-04",
  "PulseSequenceDetails": "%CustomerSeq%_cmrr_mbep2d_bold",
  "ReceiveCoilActiveElements": "HC1-7;NC1,2",
  "ReceiveCoilName": "HeadNeck_64",
  "ReconMatrixPE": 104,
  "RepetitionTime": 1.49,
  "SAR": 0.0448577,
  "ScanOptions": "FS",
  "ScanningSequence": "EP",
  "SequenceName": "epfid2d1_104",
  "SequenceVariant": "SK_SS",
  "SeriesDescription": "func_task-mario_run-04",
  "SeriesNumber": 20,
  "ShimSetting": [633, -7250, -8817, 639, 10, -212, -47, -5],
  "SliceThickness": 2,
  "SliceTiming": [0, 0.785, 0.0975, 0.8825, 0.195, 0.98, 0.295, 1.0775, 0.3925, 1.175, 0.49, 1.275, 0.5875, 1.3725, 0.685, 0, 0.785, 0.0975, 0.8825, 0.195, 0.98, 0.295, 1.0775, 0.3925, 1.175, 0.49, 1.275, 0.5875, 1.3725, 0.685, 0, 0.785, 0.0975, 0.8825, 0.195, 0.98, 0.295, 1.0775, 0.3925, 1.175, 0.49, 1.275, 0.5875, 1.3725, 0.685, 0, 0.785, 0.0975, 0.8825, 0.195, 0.98, 0.295, 1.0775, 0.3925, 1.175, 0.49, 1.275, 0.5875, 1.3725, 0.685],
  "SoftwareVersions": "syngo_MR_E11",
  "SpacingBetweenSlices": 2,
  "StationName": "MRC35049",
  "TaskName": "mario",
  "TotalReadoutTime": 0.0576811,
  "TxRefAmp": 243.746,
  "WipMemBlock": "6dce4b75-f0cc-416d-9a61-db13c446c39b||Sequence: R016 ve11c/master r/e634e98; Dec 19 2017 11:00:25 by eja",
  "dcmmeta_affine": [
    [-1.9964382648468018, 0.11721174418926239, 0.02226700447499752, 100.42766571044922],
    [0.10398446768522263, 1.8924559354782104, -0.638590395450592, -69.32792663574219],
    [0.05849481001496315, 0.63629549741745, 1.8951797485351562, -67.91820526123047],
    [0.0, 0.0, 0.0, 1.0]
],
  "dcmmeta_reorient_transform": [
    [0.0, -1.0, 0.0, 103.0],
    [1.0, 0.0, 0.0, 0.0],
    [0.0, 0.0, 1.0, 0.0],
    [0.0, 0.0, 0.0, 1.0]
],
  "dcmmeta_shape": [104, 104, 60, 460],
  "dcmmeta_slice_dim": 2,
  "dcmmeta_version": 0.6,
  "global": {
    "const": {
      "AcquisitionMatrix": [104, 0, 0, 104],
      "AngioFlag": "N",
      "BitsAllocated": 16,
      "BitsStored": 16,
      "BodyPartExamined": "BRAIN",
      "Columns": 832,
      "EchoNumbers": 1,
      "EchoTime": 37.0,
      "EchoTrainLength": 104,
      "FlipAngle": 52.0,
      "HighBit": 15,
      "ImageOrientationPatient": [0.99821911274336, -0.0519922321108, 0.02924740593637, 0.05860587062447, 0.94622796990962, -0.3181477343768],
      "ImagePositionPatient": [-881.86905937027, -776.59865060279, 207.93966585275],
      "ImageType": [
        "ORIGINAL",
        "PRIMARY",
        "P",
        "MB",
        "ND",
        "MOSAIC"
],
      "ImagedNucleus": "1H",
      "ImagingFrequency": 123.258943,
      "InPlanePhaseEncodingDirection": "COL",
      "LargestImagePixelValue": 4095,
      "MRAcquisitionType": "2D",
      "MagneticFieldStrength": 3.0,
      "Manufacturer": "SIEMENS",
      "ManufacturerModelName": "Prisma_fit",
      "Modality": "MR",
      "NumberOfAverages": 1.0,
      "NumberOfPhaseEncodingSteps": 104,
      "PercentPhaseFieldOfView": 100.0,
      "PercentSampling": 100.0,
      "PerformedProcedureStepStartTime": "150624.917000",
      "PhotometricInterpretation": "MONOCHROME2",
      "PixelBandwidth": 2290.0,
      "PixelRepresentation": 0,
      "PixelSpacing": [2.0, 2.0],
      "ProtocolName": "func_task-mario_run-04",
      "RepetitionTime": 1490.0,
      "RescaleIntercept": -4096.0,
      "RescaleSlope": 2.0,
      "RescaleType": "US",
      "Rows": 832,
      "SAR": 0.04485765371662,
      "SamplesPerPixel": 1,
      "ScanOptions": "FS",
      "ScanningSequence": "EP",
      "SequenceName": "epfid2d1_104",
      "SequenceVariant": [
        "SK",
        "SS"
],
      "SeriesDescription": "func_task-mario_run-04",
      "SeriesNumber": 20,
      "SeriesTime": "161023.281000",
      "SliceLocation": -41.104418482026,
      "SliceThickness": 2.0,
      "SmallestImagePixelValue": 0,
      "SoftwareVersions": "syngo MR E11",
      "SpacingBetweenSlices": 1.9999999573957,
      "SpecificCharacterSet": "ISO_IR 100",
      "StudyID": "1",
      "StudyTime": "150624.855000",
      "TransmitCoilName": "Body",
      "VariableFlipAngleFlag": "N",
      "WindowCenterWidthExplanation": "Algo1",
      "dBdt": 0.0},
    "slices": {}
  },
  "time": {
    "samples": {
      "AcquisitionNumber": [1, 2, 3, 4, 5, 6, 7, 8, 9, 10, 11, 12, 13, 14, 15, 16, 17, 18, 19, 20, 21, 22, 23, 24, 25, 26, 27, 28, 29, 30, 31, 32, 33, 34, 35, 36, 37, 38, 39, 40, 41, 42, 43, 44, 45, 46, 47, 48, 49, 50, 51, 52, 53, 54, 55, 56, 57, 58, 59, 60, 61, 62, 63, 64, 65, 66, 67, 68, 69, 70, 71, 72, 73, 74, 75, 76, 77, 78, 79, 80, 81, 82, 83, 84, 85, 86, 87, 88, 89, 90, 91, 92, 93, 94, 95, 96, 97, 98, 99, 100, 101, 102, 103, 104, 105, 106, 107, 108, 109, 110, 111, 112, 113, 114, 115, 116, 117, 118, 119, 120, 121, 122, 123, 124, 125, 126, 127, 128, 129, 130, 131, 132, 133, 134, 135, 136, 137, 138, 139, 140, 141, 142, 143, 144, 145, 146, 147, 148, 149, 150, 151, 152, 153, 154, 155, 156, 157, 158, 159, 160, 161, 162, 163, 164, 165, 166, 167, 168, 169, 170, 171, 172, 173, 174, 175, 176, 177, 178, 179, 180, 181, 182, 183, 184, 185, 186, 187, 188, 189, 190, 191, 192, 193, 194, 195, 196, 197, 198, 199, 200, 201, 202, 203, 204, 205, 206, 207, 208, 209, 210, 211, 212, 213, 214, 215, 216, 217, 218, 219, 220, 221, 222, 223, 224, 225, 226, 227, 228, 229, 230, 231, 232, 233, 234, 235, 236, 237, 238, 239, 240, 241, 242, 243, 244, 245, 246, 247, 248, 249, 250, 251, 252, 253, 254, 255, 256, 257, 258, 259, 260, 261, 262, 263, 264, 265, 266, 267, 268, 269, 270, 271, 272, 273, 274, 275, 276, 277, 278, 279, 280, 281, 282, 283, 284, 285, 286, 287, 288, 289, 290, 291, 292, 293, 294, 295, 296, 297, 298, 299, 300, 301, 302, 303, 304, 305, 306, 307, 308, 309, 310, 311, 312, 313, 314, 315, 316, 317, 318, 319, 320, 321, 322, 323, 324, 325, 326, 327, 328, 329, 330, 331, 332, 333, 334, 335, 336, 337, 338, 339, 340, 341, 342, 343, 344, 345, 346, 347, 348, 349, 350, 351, 352, 353, 354, 355, 356, 357, 358, 359, 360, 361, 362, 363, 364, 365, 366, 367, 368, 369, 370, 371, 372, 373, 374, 375, 376, 377, 378, 379, 380, 381, 382, 383, 384, 385, 386, 387, 388, 389, 390, 391, 392, 393, 394, 395, 396, 397, 398, 399, 400, 401, 402, 403, 404, 405, 406, 407, 408, 409, 410, 411, 412, 413, 414, 415, 416, 417, 418, 419, 420, 421, 422, 423, 424, 425, 426, 427, 428, 429, 430, 431, 432, 433, 434, 435, 436, 437, 438, 439, 440, 441, 442, 443, 444, 445, 446, 447, 448, 449, 450, 451, 452, 453, 454, 455, 456, 457, 458, 459, 460],
      "AcquisitionTime": ["160855.175000", "160856.665000", "160858.155000", "160859.645000", "160901.135000", "160902.625000", "160904.115000", "160905.605000", "160907.095000", "160908.585000", "160910.075000", "160911.565000", "160913.055000", "160914.545000", "160916.035000", "160917.525000", "160919.015000", "160920.505000", "160921.995000", "160923.485000", "160924.975000", "160926.465000", "160927.955000", "160929.445000", "160930.935000", "160932.425000", "160933.915000", "160935.405000", "160936.895000", "160938.385000", "160939.875000", "160941.365000", "160942.855000", "160944.345000", "160945.835000", "160947.325000", "160948.815000", "160950.305000", "160951.795000", "160953.285000", "160954.775000", "160956.265000", "160957.755000", "160959.245000", "161000.735000", "161002.225000", "161003.715000", "161005.205000", "161006.695000", "161008.185000", "161009.675000", "161011.165000", "161012.655000", "161014.145000", "161015.635000", "161017.125000", "161018.615000", "161020.105000", "161021.595000", "161023.085000", "161024.575000", "161026.065000", "161027.555000", "161029.045000", "161030.535000", "161032.025000", "161033.515000", "161035.005000", "161036.495000", "161037.985000", "161039.475000", "161040.965000", "161042.455000", "161043.945000", "161045.435000", "161046.925000", "161048.415000", "161049.905000", "161051.395000", "161052.885000", "161054.375000", "161055.865000", "161057.355000", "161058.845000", "161100.335000", "161101.825000", "161103.315000", "161104.805000", "161106.295000", "161107.785000", "161109.275000", "161110.765000", "161112.255000", "161113.745000", "161115.235000", "161116.725000", "161118.215000", "161119.705000", "161121.195000", "161122.685000", "161124.175000", "161125.665000", "161127.155000", "161128.645000", "161130.135000", "161131.625000", "161133.115000", "161134.605000", "161136.095000", "161137.585000", "161139.075000", "161140.565000", "161142.055000", "161143.545000", "161145.035000", "161146.525000", "161148.015000", "161149.505000", "161150.995000", "161152.485000", "161153.975000", "161155.465000", "161156.955000", "161158.445000", "161159.935000", "161201.425000", "161202.915000", "161204.405000", "161205.895000", "161207.385000", "161208.875000", "161210.365000", "161211.855000", "161213.345000", "161214.835000", "161216.325000", "161217.815000", "161219.305000", "161220.795000", "161222.285000", "161223.775000", "161225.265000", "161226.755000", "161228.245000", "161229.735000", "161231.225000", "161232.715000", "161234.205000", "161235.695000", "161237.185000", "161238.675000", "161240.165000", "161241.655000", "161243.145000", "161244.635000", "161246.125000", "161247.615000", "161249.105000", "161250.595000", "161252.085000", "161253.575000", "161255.065000", "161256.555000", "161258.045000", "161259.535000", "161301.025000", "161302.515000", "161304.005000", "161305.495000", "161306.985000", "161308.475000", "161309.965000", "161311.455000", "161312.945000", "161314.435000", "161315.925000", "161317.415000", "161318.905000", "161320.395000", "161321.885000", "161323.375000", "161324.865000", "161326.355000", "161327.845000", "161329.335000", "161330.825000", "161332.315000", "161333.805000", "161335.295000", "161336.785000", "161338.275000", "161339.765000", "161341.255000", "161342.745000", "161344.235000", "161345.725000", "161347.215000", "161348.705000", "161350.195000", "161351.685000", "161353.175000", "161354.665000", "161356.155000", "161357.645000", "161359.135000", "161400.625000", "161402.115000", "161403.605000", "161405.095000", "161406.585000", "161408.075000", "161409.565000", "161411.055000", "161412.545000", "161414.035000", "161415.525000", "161417.015000", "161418.505000", "161419.995000", "161421.485000", "161422.975000", "161424.465000", "161425.955000", "161427.445000", "161428.935000", "161430.425000", "161431.915000", "161433.405000", "161434.895000", "161436.385000", "161437.875000", "161439.365000", "161440.855000", "161442.345000", "161443.835000", "161445.325000", "161446.815000", "161448.305000", "161449.795000", "161451.285000", "161452.775000", "161454.265000", "161455.755000", "161457.245000", "161458.735000", "161500.225000", "161501.715000", "161503.205000", "161504.695000", "161506.185000", "161507.675000", "161509.165000", "161510.655000", "161512.145000", "161513.635000", "161515.125000", "161516.615000", "161518.105000", "161519.595000", "161521.085000", "161522.575000", "161524.065000", "161525.555000", "161527.045000", "161528.535000", "161530.025000", "161531.515000", "161533.005000", "161534.495000", "161535.985000", "161537.475000", "161538.965000", "161540.455000", "161541.945000", "161543.435000", "161544.925000", "161546.415000", "161547.905000", "161549.395000", "161550.885000", "161552.375000", "161553.865000", "161555.355000", "161556.845000", "161558.335000", "161559.825000", "161601.315000", "161602.805000", "161604.295000", "161605.785000", "161607.275000", "161608.765000", "161610.255000", "161611.745000", "161613.235000", "161614.725000", "161616.215000", "161617.705000", "161619.195000", "161620.685000", "161622.175000", "161623.665000", "161625.155000", "161626.645000", "161628.135000", "161629.625000", "161631.115000", "161632.605000", "161634.095000", "161635.585000", "161637.075000", "161638.565000", "161640.055000", "161641.545000", "161643.035000", "161644.525000", "161646.015000", "161647.505000", "161648.995000", "161650.485000", "161651.975000", "161653.465000", "161654.955000", "161656.445000", "161657.935000", "161659.425000", "161700.915000", "161702.405000", "161703.895000", "161705.385000", "161706.875000", "161708.365000", "161709.855000", "161711.345000", "161712.835000", "161714.325000", "161715.815000", "161717.305000", "161718.795000", "161720.285000", "161721.775000", "161723.265000", "161724.755000", "161726.245000", "161727.735000", "161729.225000", "161730.715000", "161732.205000", "161733.695000", "161735.185000", "161736.675000", "161738.165000", "161739.655000", "161741.145000", "161742.635000", "161744.125000", "161745.615000", "161747.105000", "161748.595000", "161750.085000", "161751.575000", "161753.065000", "161754.555000", "161756.045000", "161757.535000", "161759.025000", "161800.515000", "161802.005000", "161803.495000", "161804.985000", "161806.475000", "161807.965000", "161809.455000", "161810.945000", "161812.435000", "161813.925000", "161815.415000", "161816.905000", "161818.395000", "161819.885000", "161821.375000", "161822.865000", "161824.355000", "161825.845000", "161827.335000", "161828.825000", "161830.315000", "161831.805000", "161833.295000", "161834.785000", "161836.275000", "161837.765000", "161839.255000", "161840.745000", "161842.235000", "161843.725000", "161845.215000", "161846.705000", "161848.195000", "161849.685000", "161851.175000", "161852.665000", "161854.155000", "161855.645000", "161857.135000", "161858.625000", "161900.115000", "161901.605000", "161903.095000", "161904.585000", "161906.075000", "161907.565000", "161909.055000", "161910.545000", "161912.035000", "161913.525000", "161915.015000", "161916.505000", "161917.995000", "161919.485000", "161920.975000", "161922.465000", "161923.955000", "161925.445000", "161926.935000", "161928.425000", "161929.915000", "161931.405000", "161932.895000", "161934.385000", "161935.875000", "161937.365000", "161938.855000", "161940.345000", "161941.835000", "161943.325000", "161944.815000", "161946.305000", "161947.795000", "161949.285000", "161950.775000", "161952.265000", "161953.755000", "161955.245000", "161956.735000", "161958.225000", "161959.715000", "162001.205000", "162002.695000", "162004.185000", "162005.675000", "162007.165000", "162008.655000", "162010.145000", "162011.635000", "162013.125000", "162014.615000", "162016.105000", "162017.595000", "162019.085000"],
      "ContentTime": ["161023.283000", "161023.293000", "161023.296000", "161023.298000", "161023.300000", "161023.303000", "161023.306000", "161023.308000", "161023.311000", "161023.313000", "161023.316000", "161023.318000", "161023.322000", "161023.325000", "161023.327000", "161023.330000", "161023.332000", "161023.335000", "161023.337000", "161023.340000", "161023.342000", "161023.345000", "161023.347000", "161023.350000", "161023.352000", "161023.355000", "161023.358000", "161023.360000", "161023.363000", "161023.365000", "161023.368000", "161023.370000", "161023.373000", "161043.191000", "161043.195000", "161043.197000", "161043.200000", "161043.203000", "161043.205000", "161043.207000", "161043.210000", "161043.213000", "161043.215000", "161043.218000", "161043.220000", "161043.223000", "161043.225000", "161043.228000", "161043.230000", "161043.233000", "161043.235000", "161043.238000", "161043.245000", "161103.175000", "161103.177000", "161103.180000", "161103.182000", "161103.185000", "161103.187000", "161103.190000", "161103.193000", "161103.195000", "161103.197000", "161103.200000", "161103.203000", "161103.205000", "161103.208000", "161103.210000", "161103.213000", "161103.215000", "161103.218000", "161103.220000", "161103.223000", "161123.180000", "161123.182000", "161123.185000", "161123.187000", "161123.190000", "161123.192000", "161123.195000", "161123.197000", "161123.200000", "161123.202000", "161123.205000", "161123.208000", "161123.210000", "161123.213000", "161123.215000", "161123.218000", "161123.220000", "161123.223000", "161123.225000", "161123.228000", "161123.230000", "161143.156000", "161143.159000", "161143.162000", "161143.164000", "161143.167000", "161143.169000", "161143.172000", "161143.175000", "161143.177000", "161143.180000", "161143.182000", "161143.185000", "161143.187000", "161143.190000", "161143.192000", "161143.195000", "161143.197000", "161143.200000", "161223.193000", "161223.196000", "161223.198000", "161223.201000", "161223.203000", "161223.206000", "161223.208000", "161223.211000", "161223.213000", "161223.216000", "161223.218000", "161223.221000", "161223.223000", "161223.226000", "161223.228000", "161223.231000", "161223.233000", "161223.236000", "161223.238000", "161223.241000", "161223.243000", "161223.246000", "161223.248000", "161223.251000", "161223.253000", "161223.256000", "161223.258000", "161303.189000", "161303.192000", "161303.194000", "161303.197000", "161303.200000", "161303.202000", "161303.205000", "161303.207000", "161303.210000", "161303.212000", "161303.215000", "161303.217000", "161303.220000", "161303.222000", "161303.225000", "161303.227000", "161303.230000", "161303.233000", "161303.235000", "161303.237000", "161303.240000", "161303.243000", "161303.245000", "161303.248000", "161303.250000", "161303.253000", "161303.255000", "161343.202000", "161343.205000", "161343.207000", "161343.216000", "161343.219000", "161343.221000", "161343.224000", "161343.227000", "161343.229000", "161343.232000", "161343.234000", "161343.237000", "161343.240000", "161343.242000", "161343.245000", "161343.248000", "161343.250000", "161343.253000", "161343.255000", "161343.258000", "161343.260000", "161343.263000", "161343.265000", "161343.268000", "161343.270000", "161343.273000", "161423.215000", "161423.217000", "161423.220000", "161423.223000", "161423.225000", "161423.228000", "161423.231000", "161423.233000", "161423.236000", "161423.238000", "161423.241000", "161423.243000", "161423.246000", "161423.248000", "161423.251000", "161423.253000", "161423.256000", "161423.258000", "161423.261000", "161423.264000", "161423.266000", "161423.269000", "161423.271000", "161423.274000", "161423.276000", "161423.279000", "161423.281000", "161503.196000", "161503.199000", "161503.201000", "161503.204000", "161503.206000", "161503.209000", "161503.211000", "161503.214000", "161503.216000", "161503.219000", "161503.221000", "161503.224000", "161503.226000", "161503.229000", "161503.231000", "161503.234000", "161503.236000", "161503.239000", "161503.241000", "161503.244000", "161503.246000", "161503.249000", "161503.251000", "161503.254000", "161503.257000", "161503.259000", "161503.262000", "161543.209000", "161543.212000", "161543.214000", "161543.217000", "161543.220000", "161543.222000", "161543.225000", "161543.227000", "161543.230000", "161543.233000", "161543.242000", "161543.245000", "161543.247000", "161543.250000", "161543.253000", "161543.255000", "161543.258000", "161543.260000", "161543.263000", "161543.265000", "161543.268000", "161543.270000", "161543.273000", "161543.275000", "161543.278000", "161543.280000", "161543.283000", "161623.195000", "161623.198000", "161623.201000", "161623.203000", "161623.206000", "161623.208000", "161623.211000", "161623.213000", "161623.216000", "161623.218000", "161623.221000", "161623.223000", "161623.226000", "161623.228000", "161623.231000", "161623.233000", "161623.236000", "161623.239000", "161623.241000", "161623.244000", "161623.246000", "161623.249000", "161623.251000", "161623.254000", "161623.256000", "161623.259000", "161623.261000", "161703.232000", "161703.235000", "161703.237000", "161703.240000", "161703.242000", "161703.245000", "161703.247000", "161703.250000", "161703.252000", "161703.255000", "161703.258000", "161703.260000", "161703.263000", "161703.265000", "161703.268000", "161703.270000", "161703.273000", "161703.275000", "161703.278000", "161703.280000", "161703.283000", "161703.285000", "161703.288000", "161703.291000", "161703.293000", "161703.296000", "161703.298000", "161743.206000", "161743.209000", "161743.211000", "161743.214000", "161743.223000", "161743.226000", "161743.228000", "161743.231000", "161743.233000", "161743.236000", "161743.238000", "161743.241000", "161743.244000", "161743.246000", "161743.248000", "161743.251000", "161743.254000", "161743.256000", "161743.259000", "161743.261000", "161743.264000", "161743.266000", "161743.269000", "161743.271000", "161743.274000", "161743.276000", "161743.279000", "161823.215000", "161823.219000", "161823.222000", "161823.225000", "161823.229000", "161823.234000", "161823.238000", "161823.241000", "161823.244000", "161823.247000", "161823.249000", "161823.252000", "161823.254000", "161823.257000", "161823.259000", "161823.262000", "161823.264000", "161823.267000", "161823.269000", "161823.272000", "161823.275000", "161823.277000", "161823.279000", "161823.282000", "161823.285000", "161823.287000", "161903.196000", "161903.199000", "161903.201000", "161903.204000", "161903.206000", "161903.209000", "161903.211000", "161903.214000", "161903.216000", "161903.219000", "161903.221000", "161903.224000", "161903.226000", "161903.229000", "161903.232000", "161903.234000", "161903.237000", "161903.239000", "161903.242000", "161903.244000", "161903.247000", "161903.249000", "161903.252000", "161903.254000", "161903.257000", "161903.259000", "161903.262000", "161943.196000", "161943.199000", "161943.201000", "161943.204000", "161943.206000", "161943.209000", "161943.211000", "161943.214000", "161943.217000", "161943.219000", "161943.221000", "161943.224000", "161943.227000", "161943.229000", "161943.232000", "161943.234000", "161943.237000", "161943.239000", "161943.242000", "161943.244000", "161943.247000", "161943.250000", "161943.252000", "161943.255000", "161943.257000", "161943.260000", "161943.262000", "162022.018000", "162022.021000", "162022.023000", "162022.026000", "162022.029000", "162022.031000", "162022.034000", "162022.036000", "162022.039000", "162022.041000", "162022.044000", "162022.046000", "162022.049000", "162022.051000", "162022.054000", "162022.057000", "162022.059000", "162022.062000", "162022.065000", "162022.067000", "162022.070000", "162022.072000", "162022.075000", "162022.077000", "162022.080000", "162022.082000"],
