{
  "AcquisitionMatrixPE": 104,
  "AcquisitionNumber": 1,
  "AcquisitionTime": "15:29:10.412500",
  "BandwidthPerPixelPhaseEncode": 17.17,
  "BaseResolution": 104,
  "BodyPartExamined": "BRAIN",
  "CoilString": "HC1-7;NC1_2",
  "ConsistencyInfo": "N4_VE11C_LATEST_20160120",
  "ConversionSoftware": "dcm2niix",
  "ConversionSoftwareVersion": "v1.0.20190902",
  "DerivedVendorReportedEchoSpacing": 0.000560011,
  "DeviceSerialNumber": "167006",
  "DwellTime": 2.1e-06,
  "EchoTime": 0.037,
  "EchoTrainLength": 104,
  "EffectiveEchoSpacing": 0.000560011,
  "FlipAngle": 52,
  "HeudiconvVersion": "0.10.0",
  "ImageComments": "Unaliased_MB4_PE3_LB",
  "ImageOrientationPatientDICOM": [0.998219, -0.0519922, 0.0292474, 0.0586059, 0.946228, -0.318148],
  "ImageType": [
    "ORIGINAL",
    "PRIMARY",
    "P",
    "MB",
    "ND",
    "MOSAIC"
],
  "ImagingFrequency": 123.259,
  "InPlanePhaseEncodingDirectionDICOM": "COL",
  "InstitutionAddress": "Chemin_Queen-Mary_4565_Montreal_District_CA_H3W_1W5",
  "InstitutionName": "IUGM",
  "InstitutionalDepartmentName": "Department",
  "MRAcquisitionType": "2D",
  "MagneticFieldStrength": 3,
  "Manufacturer": "Siemens",
  "ManufacturersModelName": "Prisma_fit",
  "Modality": "MR",
  "MultibandAccelerationFactor": 4,
  "PartialFourier": 1,
  "PatientPosition": "HFS",
  "PercentPhaseFOV": 100,
  "PhaseEncodingDirection": "j",
  "PhaseEncodingSteps": 104,
  "PhaseResolution": 1,
  "PixelBandwidth": 2290,
  "ProcedureStepDescription": "games_mario",
  "ProtocolName": "func_task-mario_run-01",
  "PulseSequenceDetails": "%CustomerSeq%_cmrr_mbep2d_bold",
  "ReceiveCoilActiveElements": "HC1-7;NC1,2",
  "ReceiveCoilName": "HeadNeck_64",
  "ReconMatrixPE": 104,
  "RepetitionTime": 1.49,
  "SAR": 0.0448577,
  "ScanOptions": "FS",
  "ScanningSequence": "EP",
  "SequenceName": "epfid2d1_104",
  "SequenceVariant": "SK_SS",
  "SeriesDescription": "func_task-mario_run-01",
  "SeriesNumber": 11,
  "ShimSetting": [633, -7250, -8817, 639, 10, -212, -47, -5],
  "SliceThickness": 2,
  "SliceTiming": [0, 0.785, 0.0975, 0.8825, 0.195, 0.98, 0.295, 1.0775, 0.3925, 1.175, 0.49, 1.275, 0.5875, 1.3725, 0.685, 0, 0.785, 0.0975, 0.8825, 0.195, 0.98, 0.295, 1.0775, 0.3925, 1.175, 0.49, 1.275, 0.5875, 1.3725, 0.685, 0, 0.785, 0.0975, 0.8825, 0.195, 0.98, 0.295, 1.0775, 0.3925, 1.175, 0.49, 1.275, 0.5875, 1.3725, 0.685, 0, 0.785, 0.0975, 0.8825, 0.195, 0.98, 0.295, 1.0775, 0.3925, 1.175, 0.49, 1.275, 0.5875, 1.3725, 0.685],
  "SoftwareVersions": "syngo_MR_E11",
  "SpacingBetweenSlices": 2,
  "StationName": "MRC35049",
  "TaskName": "mario",
  "TotalReadoutTime": 0.0576811,
  "TxRefAmp": 243.746,
  "WipMemBlock": "ea2951d1-34aa-40c8-b847-9a3dc6d504ce||Sequence: R016 ve11c/master r/e634e98; Dec 19 2017 11:00:25 by eja",
  "dcmmeta_affine": [
    [-1.9964382648468018, 0.11721174418926239, 0.02226700447499752, 100.42766571044922],
    [0.10398446768522263, 1.8924559354782104, -0.638590395450592, -69.32792663574219],
    [0.05849481001496315, 0.63629549741745, 1.8951797485351562, -67.91820526123047],
    [0.0, 0.0, 0.0, 1.0]
],
  "dcmmeta_reorient_transform": [
    [0.0, -1.0, 0.0, 103.0],
    [1.0, 0.0, 0.0, 0.0],
    [0.0, 0.0, 1.0, 0.0],
    [0.0, 0.0, 0.0, 1.0]
],
  "dcmmeta_shape": [104, 104, 60, 427],
  "dcmmeta_slice_dim": 2,
  "dcmmeta_version": 0.6,
  "global": {
    "const": {
      "AcquisitionMatrix": [104, 0, 0, 104],
      "AngioFlag": "N",
      "BitsAllocated": 16,
      "BitsStored": 16,
      "BodyPartExamined": "BRAIN",
      "Columns": 832,
      "EchoNumbers": 1,
      "EchoTime": 37.0,
      "EchoTrainLength": 104,
      "FlipAngle": 52.0,
      "HighBit": 15,
      "ImageOrientationPatient": [0.99821911274336, -0.0519922321108, 0.02924740593637, 0.05860587062447, 0.94622796990962, -0.3181477343768],
      "ImagePositionPatient": [-881.86905937027, -776.59865060279, 207.93966585275],
      "ImageType": [
        "ORIGINAL",
        "PRIMARY",
        "P",
        "MB",
        "ND",
        "MOSAIC"
],
      "ImagedNucleus": "1H",
      "ImagingFrequency": 123.258923,
      "InPlanePhaseEncodingDirection": "COL",
      "LargestImagePixelValue": 4095,
      "MRAcquisitionType": "2D",
      "MagneticFieldStrength": 3.0,
      "Manufacturer": "SIEMENS",
      "ManufacturerModelName": "Prisma_fit",
      "Modality": "MR",
      "NumberOfAverages": 1.0,
      "NumberOfPhaseEncodingSteps": 104,
      "PercentPhaseFieldOfView": 100.0,
      "PercentSampling": 100.0,
      "PerformedProcedureStepStartTime": "150624.917000",
      "PhotometricInterpretation": "MONOCHROME2",
      "PixelBandwidth": 2290.0,
      "PixelRepresentation": 0,
      "PixelSpacing": [2.0, 2.0],
      "ProtocolName": "func_task-mario_run-01",
      "RepetitionTime": 1490.0,
      "RescaleIntercept": -4096.0,
      "RescaleSlope": 2.0,
      "RescaleType": "US",
      "Rows": 832,
      "SAR": 0.04485765371662,
      "SamplesPerPixel": 1,
      "ScanOptions": "FS",
      "ScanningSequence": "EP",
      "SequenceName": "epfid2d1_104",
      "SequenceVariant": [
        "SK",
        "SS"
],
      "SeriesDescription": "func_task-mario_run-01",
      "SeriesNumber": 11,
      "SeriesTime": "153043.289000",
      "SliceLocation": -41.104418482026,
      "SliceThickness": 2.0,
      "SmallestImagePixelValue": 0,
      "SoftwareVersions": "syngo MR E11",
      "SpacingBetweenSlices": 1.9999999573957,
      "SpecificCharacterSet": "ISO_IR 100",
      "StudyID": "1",
      "StudyTime": "150624.855000",
      "TransmitCoilName": "Body",
      "VariableFlipAngleFlag": "N",
      "WindowCenterWidthExplanation": "Algo1",
      "dBdt": 0.0},
    "slices": {}
  },
  "time": {
    "samples": {
      "AcquisitionNumber": [1, 2, 3, 4, 5, 6, 7, 8, 9, 10, 11, 12, 13, 14, 15, 16, 17, 18, 19, 20, 21, 22, 23, 24, 25, 26, 27, 28, 29, 30, 31, 32, 33, 34, 35, 36, 37, 38, 39, 40, 41, 42, 43, 44, 45, 46, 47, 48, 49, 50, 51, 52, 53, 54, 55, 56, 57, 58, 59, 60, 61, 62, 63, 64, 65, 66, 67, 68, 69, 70, 71, 72, 73, 74, 75, 76, 77, 78, 79, 80, 81, 82, 83, 84, 85, 86, 87, 88, 89, 90, 91, 92, 93, 94, 95, 96, 97, 98, 99, 100, 101, 102, 103, 104, 105, 106, 107, 108, 109, 110, 111, 112, 113, 114, 115, 116, 117, 118, 119, 120, 121, 122, 123, 124, 125, 126, 127, 128, 129, 130, 131, 132, 133, 134, 135, 136, 137, 138, 139, 140, 141, 142, 143, 144, 145, 146, 147, 148, 149, 150, 151, 152, 153, 154, 155, 156, 157, 158, 159, 160, 161, 162, 163, 164, 165, 166, 167, 168, 169, 170, 171, 172, 173, 174, 175, 176, 177, 178, 179, 180, 181, 182, 183, 184, 185, 186, 187, 188, 189, 190, 191, 192, 193, 194, 195, 196, 197, 198, 199, 200, 201, 202, 203, 204, 205, 206, 207, 208, 209, 210, 211, 212, 213, 214, 215, 216, 217, 218, 219, 220, 221, 222, 223, 224, 225, 226, 227, 228, 229, 230, 231, 232, 233, 234, 235, 236, 237, 238, 239, 240, 241, 242, 243, 244, 245, 246, 247, 248, 249, 250, 251, 252, 253, 254, 255, 256, 257, 258, 259, 260, 261, 262, 263, 264, 265, 266, 267, 268, 269, 270, 271, 272, 273, 274, 275, 276, 277, 278, 279, 280, 281, 282, 283, 284, 285, 286, 287, 288, 289, 290, 291, 292, 293, 294, 295, 296, 297, 298, 299, 300, 301, 302, 303, 304, 305, 306, 307, 308, 309, 310, 311, 312, 313, 314, 315, 316, 317, 318, 319, 320, 321, 322, 323, 324, 325, 326, 327, 328, 329, 330, 331, 332, 333, 334, 335, 336, 337, 338, 339, 340, 341, 342, 343, 344, 345, 346, 347, 348, 349, 350, 351, 352, 353, 354, 355, 356, 357, 358, 359, 360, 361, 362, 363, 364, 365, 366, 367, 368, 369, 370, 371, 372, 373, 374, 375, 376, 377, 378, 379, 380, 381, 382, 383, 384, 385, 386, 387, 388, 389, 390, 391, 392, 393, 394, 395, 396, 397, 398, 399, 400, 401, 402, 403, 404, 405, 406, 407, 408, 409, 410, 411, 412, 413, 414, 415, 416, 417, 418, 419, 420, 421, 422, 423, 424, 425, 426, 427],
      "AcquisitionTime": ["152910.412500", "152911.902500", "152913.392500", "152914.882500", "152916.372500", "152917.862500", "152919.352500", "152920.842500", "152922.332500", "152923.822500", "152925.312500", "152926.802500", "152928.292500", "152929.782500", "152931.272500", "152932.762500", "152934.252500", "152935.742500", "152937.232500", "152938.722500", "152940.212500", "152941.702500", "152943.192500", "152944.682500", "152946.172500", "152947.662500", "152949.152500", "152950.642500", "152952.132500", "152953.622500", "152955.112500", "152956.602500", "152958.092500", "152959.582500", "153001.072500", "153002.562500", "153004.052500", "153005.542500", "153007.032500", "153008.522500", "153010.012500", "153011.502500", "153012.992500", "153014.482500", "153015.972500", "153017.462500", "153018.952500", "153020.442500", "153021.932500", "153023.422500", "153024.912500", "153026.402500", "153027.892500", "153029.382500", "153030.872500", "153032.362500", "153033.852500", "153035.342500", "153036.832500", "153038.322500", "153039.812500", "153041.302500", "153042.792500", "153044.282500", "153045.772500", "153047.262500", "153048.752500", "153050.242500", "153051.732500", "153053.222500", "153054.712500", "153056.202500", "153057.692500", "153059.182500", "153100.672500", "153102.162500", "153103.652500", "153105.142500", "153106.632500", "153108.122500", "153109.612500", "153111.102500", "153112.592500", "153114.082500", "153115.572500", "153117.062500", "153118.552500", "153120.042500", "153121.532500", "153123.022500", "153124.512500", "153126.002500", "153127.492500", "153128.982500", "153130.472500", "153131.962500", "153133.452500", "153134.942500", "153136.432500", "153137.922500", "153139.412500", "153140.902500", "153142.392500", "153143.882500", "153145.372500", "153146.862500", "153148.352500", "153149.842500", "153151.332500", "153152.822500", "153154.312500", "153155.802500", "153157.292500", "153158.782500", "153200.272500", "153201.762500", "153203.252500", "153204.742500", "153206.232500", "153207.722500", "153209.212500", "153210.702500", "153212.192500", "153213.682500", "153215.172500", "153216.662500", "153218.152500", "153219.642500", "153221.132500", "153222.622500", "153224.112500", "153225.602500", "153227.092500", "153228.582500", "153230.072500", "153231.562500", "153233.052500", "153234.542500", "153236.032500", "153237.522500", "153239.012500", "153240.502500", "153241.992500", "153243.482500", "153244.972500", "153246.462500", "153247.952500", "153249.442500", "153250.932500", "153252.422500", "153253.912500", "153255.402500", "153256.892500", "153258.382500", "153259.872500", "153301.362500", "153302.852500", "153304.342500", "153305.832500", "153307.322500", "153308.812500", "153310.302500", "153311.792500", "153313.282500", "153314.772500", "153316.262500", "153317.752500", "153319.242500", "153320.732500", "153322.222500", "153323.712500", "153325.202500", "153326.692500", "153328.182500", "153329.672500", "153331.162500", "153332.652500", "153334.142500", "153335.632500", "153337.122500", "153338.612500", "153340.102500", "153341.592500", "153343.082500", "153344.572500", "153346.062500", "153347.552500", "153349.042500", "153350.532500", "153352.022500", "153353.512500", "153355.002500", "153356.492500", "153357.982500", "153359.472500", "153400.962500", "153402.452500", "153403.942500", "153405.432500", "153406.922500", "153408.412500", "153409.902500", "153411.392500", "153412.882500", "153414.372500", "153415.862500", "153417.352500", "153418.842500", "153420.332500", "153421.822500", "153423.312500", "153424.802500", "153426.292500", "153427.782500", "153429.272500", "153430.762500", "153432.252500", "153433.742500", "153435.232500", "153436.722500", "153438.212500", "153439.702500", "153441.192500", "153442.682500", "153444.172500", "153445.662500", "153447.152500", "153448.642500", "153450.132500", "153451.622500", "153453.112500", "153454.602500", "153456.092500", "153457.582500", "153459.072500", "153500.562500", "153502.052500", "153503.542500", "153505.032500", "153506.522500", "153508.012500", "153509.502500", "153510.992500", "153512.482500", "153513.972500", "153515.462500", "153516.952500", "153518.442500", "153519.932500", "153521.422500", "153522.912500", "153524.402500", "153525.892500", "153527.382500", "153528.872500", "153530.362500", "153531.852500", "153533.342500", "153534.832500", "153536.322500", "153537.812500", "153539.302500", "153540.792500", "153542.282500", "153543.772500", "153545.262500", "153546.752500", "153548.242500", "153549.732500", "153551.222500", "153552.712500", "153554.202500", "153555.692500", "153557.182500", "153558.672500", "153600.162500", "153601.652500", "153603.142500", "153604.632500", "153606.122500", "153607.612500", "153609.102500", "153610.592500", "153612.082500", "153613.572500", "153615.062500", "153616.552500", "153618.042500", "153619.532500", "153621.022500", "153622.512500", "153624.002500", "153625.492500", "153626.982500", "153628.472500", "153629.962500", "153631.452500", "153632.942500", "153634.432500", "153635.922500", "153637.412500", "153638.902500", "153640.392500", "153641.882500", "153643.372500", "153644.862500", "153646.352500", "153647.842500", "153649.332500", "153650.822500", "153652.312500", "153653.802500", "153655.292500", "153656.782500", "153658.272500", "153659.762500", "153701.252500", "153702.742500", "153704.232500", "153705.722500", "153707.212500", "153708.702500", "153710.192500", "153711.682500", "153713.172500", "153714.662500", "153716.152500", "153717.642500", "153719.132500", "153720.622500", "153722.112500", "153723.602500", "153725.092500", "153726.582500", "153728.072500", "153729.562500", "153731.052500", "153732.542500", "153734.032500", "153735.522500", "153737.012500", "153738.502500", "153739.992500", "153741.482500", "153742.972500", "153744.462500", "153745.952500", "153747.442500", "153748.932500", "153750.422500", "153751.912500", "153753.402500", "153754.892500", "153756.382500", "153757.872500", "153759.362500", "153800.852500", "153802.342500", "153803.832500", "153805.322500", "153806.812500", "153808.302500", "153809.792500", "153811.282500", "153812.772500", "153814.262500", "153815.752500", "153817.242500", "153818.732500", "153820.222500", "153821.712500", "153823.202500", "153824.692500", "153826.182500", "153827.672500", "153829.162500", "153830.652500", "153832.142500", "153833.632500", "153835.122500", "153836.612500", "153838.102500", "153839.592500", "153841.082500", "153842.572500", "153844.062500", "153845.552500", "153847.042500", "153848.532500", "153850.022500", "153851.512500", "153853.002500", "153854.492500", "153855.982500", "153857.472500", "153858.962500", "153900.452500", "153901.942500", "153903.432500", "153904.922500", "153906.412500", "153907.902500", "153909.392500", "153910.882500", "153912.372500", "153913.862500", "153915.352500", "153916.842500", "153918.332500", "153919.822500", "153921.312500", "153922.802500", "153924.292500", "153925.782500", "153927.272500", "153928.762500", "153930.252500", "153931.742500", "153933.232500", "153934.722500", "153936.212500", "153937.702500", "153939.192500", "153940.682500", "153942.172500", "153943.662500", "153945.152500"],
      "ContentTime": ["153043.291000", "153043.294000", "153043.296000", "153043.299000", "153043.301000", "153043.304000", "153043.306000", "153043.309000", "153043.311000", "153043.314000", "153043.316000", "153043.319000", "153043.321000", "153043.324000", "153043.326000", "153043.329000", "153043.331000", "153043.334000", "153043.336000", "153043.338000", "153043.341000", "153043.343000", "153043.346000", "153043.348000", "153043.351000", "153043.353000", "153043.356000", "153043.358000", "153043.361000", "153043.363000", "153043.366000", "153043.368000", "153043.371000", "153043.373000", "153043.376000", "153043.378000", "153043.381000", "153043.383000", "153043.386000", "153103.162000", "153103.165000", "153103.168000", "153103.170000", "153103.173000", "153103.175000", "153103.178000", "153103.180000", "153103.183000", "153103.194000", "153103.197000", "153103.199000", "153103.202000", "153103.204000", "153103.207000", "153103.209000", "153103.212000", "153103.214000", "153103.217000", "153103.219000", "153123.156000", "153123.158000", "153123.161000", "153123.163000", "153123.166000", "153123.169000", "153123.171000", "153123.174000", "153123.176000", "153123.179000", "153123.181000", "153123.184000", "153123.186000", "153123.189000", "153123.192000", "153123.194000", "153123.197000", "153123.200000", "153123.202000", "153123.205000", "153143.178000", "153143.181000", "153143.183000", "153143.186000", "153143.188000", "153143.191000", "153143.193000", "153143.196000", "153143.198000", "153143.201000", "153143.203000", "153143.206000", "153143.208000", "153143.211000", "153143.213000", "153143.216000", "153143.218000", "153143.221000", "153143.223000", "153143.226000", "153223.215000", "153223.218000", "153223.221000", "153223.223000", "153223.226000", "153223.228000", "153223.231000", "153223.233000", "153223.236000", "153223.238000", "153223.241000", "153223.243000", "153223.246000", "153223.248000", "153223.251000", "153223.253000", "153223.256000", "153223.259000", "153223.261000", "153223.264000", "153223.266000", "153223.269000", "153223.271000", "153223.274000", "153223.276000", "153223.279000", "153223.281000", "153223.284000", "153223.287000", "153303.195000", "153303.198000", "153303.200000", "153303.203000", "153303.205000", "153303.208000", "153303.210000", "153303.213000", "153303.215000", "153303.218000", "153303.220000", "153303.223000", "153303.226000", "153303.228000", "153303.230000", "153303.233000", "153303.236000", "153303.238000", "153303.241000", "153303.243000", "153303.246000", "153303.248000", "153303.251000", "153303.253000", "153303.256000", "153303.258000", "153303.261000", "153343.184000", "153343.186000", "153343.189000", "153343.192000", "153343.194000", "153343.197000", "153343.199000", "153343.202000", "153343.204000", "153343.207000", "153343.209000", "153343.212000", "153343.214000", "153343.217000", "153343.219000", "153343.222000", "153343.224000", "153343.227000", "153343.229000", "153343.232000", "153343.234000", "153343.237000", "153343.240000", "153343.242000", "153343.245000", "153343.247000", "153343.250000", "153423.185000", "153423.188000", "153423.190000", "153423.193000", "153423.195000", "153423.198000", "153423.200000", "153423.203000", "153423.205000", "153423.208000", "153423.210000", "153423.213000", "153423.215000", "153423.218000", "153423.220000", "153423.223000", "153423.226000", "153423.228000", "153423.231000", "153423.233000", "153423.236000", "153423.238000", "153423.241000", "153423.243000", "153423.246000", "153423.248000", "153423.251000", "153503.188000", "153503.190000", "153503.193000", "153503.195000", "153503.198000", "153503.201000", "153503.203000", "153503.206000", "153503.208000", "153503.211000", "153503.214000", "153503.216000", "153503.219000", "153503.221000", "153503.224000", "153503.226000", "153503.229000", "153503.231000", "153503.234000", "153503.236000", "153503.239000", "153503.241000", "153503.244000", "153503.246000", "153503.249000", "153503.252000", "153503.254000", "153543.202000", "153543.205000", "153543.208000", "153543.211000", "153543.213000", "153543.216000", "153543.218000", "153543.221000", "153543.223000", "153543.226000", "153543.229000", "153543.231000", "153543.234000", "153543.236000", "153543.239000", "153543.241000", "153543.244000", "153543.246000", "153543.249000", "153543.251000", "153543.254000", "153543.257000", "153543.259000", "153543.261000", "153543.264000", "153543.267000", "153623.198000", "153623.200000", "153623.203000", "153623.205000", "153623.208000", "153623.210000", "153623.213000", "153623.215000", "153623.218000", "153623.220000", "153623.223000", "153623.225000", "153623.228000", "153623.231000", "153623.233000", "153623.235000", "153623.238000", "153623.241000", "153623.243000", "153623.246000", "153623.248000", "153623.251000", "153623.253000", "153623.256000", "153623.259000", "153623.261000", "153623.264000", "153703.213000", "153703.215000", "153703.218000", "153703.220000", "153703.223000", "153703.225000", "153703.228000", "153703.230000", "153703.233000", "153703.235000", "153703.238000", "153703.240000", "153703.243000", "153703.246000", "153703.248000", "153703.251000", "153703.253000", "153703.256000", "153703.258000", "153703.261000", "153703.263000", "153703.266000", "153703.268000", "153703.271000", "153703.273000", "153703.276000", "153703.278000", "153743.197000", "153743.200000", "153743.203000", "153743.205000", "153743.208000", "153743.210000", "153743.213000", "153743.215000", "153743.218000", "153743.220000", "153743.223000", "153743.226000", "153743.228000", "153743.231000", "153743.233000", "153743.236000", "153743.238000", "153743.241000", "153743.243000", "153743.246000", "153743.249000", "153743.251000", "153743.254000", "153743.256000", "153743.259000", "153743.261000", "153743.264000", "153823.182000", "153823.185000", "153823.188000", "153823.190000", "153823.193000", "153823.195000", "153823.198000", "153823.200000", "153823.203000", "153823.205000", "153823.208000", "153823.210000", "153823.213000", "153823.215000", "153823.218000", "153823.220000", "153823.223000", "153823.226000", "153823.228000", "153823.231000", "153823.233000", "153823.236000", "153823.238000", "153823.241000", "153823.243000", "153823.246000", "153823.248000", "153903.202000", "153903.205000", "153903.207000", "153903.210000", "153903.212000", "153903.215000", "153903.217000", "153903.220000", "153903.223000", "153903.225000", "153903.228000", "153903.230000", "153903.233000", "153903.235000", "153903.238000", "153903.240000", "153903.243000", "153903.245000", "153903.248000", "153903.250000", "153903.253000", "153903.256000", "153903.258000", "153903.261000", "153903.264000", "153903.266000", "153903.269000", "153943.536000", "153943.539000", "153943.542000", "153943.545000", "153943.547000", "153943.549000", "153943.552000", "153943.555000", "153943.557000", "153943.560000", "153943.562000", "153943.565000", "153943.567000", "153943.570000", "153943.572000", "153943.575000", "153943.578000", "153943.580000", "153943.582000", "153943.585000", "153943.588000", "153943.590000", "153943.593000", "153943.595000", "153943.598000", "153943.600000", "153947.756000", "153947.759000", "153947.762000", "153947.764000"],
      "InstanceCreationTime": ["153043.291000", "153043.294000", "153043.296000", "153043.299000", "153043.301000", "153043.304000", "153043.306000", "153043.309000", "153043.311000", "153043.314000", "153043.316000", "153043.319000", "153043.321000", "153043.324000", "153043.326000", "153043.329000", "153043.331000", "153043.334000", "153043.336000", "153043.338000", "153043.341000", "153043.343000", "153043.346000", "153043.348000", "153043.351000", "153043.353000", "153043.356000", "153043.358000", "153043.361000", "153043.363000", "153043.366000", "153043.368000", "153043.371000", "153043.373000", "153043.376000", "153043.378000", "153043.381000", "153043.383000", "153043.386000", "153103.162000", "153103.165000", "153103.168000", "153103.170000", "153103.173000", "153103.175000", "153103.178000", "153103.180000", "153103.183000", "153103.194000", "153103.197000", "153103.199000", "153103.202000", "153103.204000", "153103.207000", "153103.209000", "153103.212000", "153103.214000", "153103.217000", "153103.219000", "153123.156000", "153123.158000", "153123.161000", "153123.163000", "153123.166000", "153123.169000", "153123.171000", "153123.174000", "153123.176000", "153123.179000", "153123.181000", "153123.184000", "153123.186000", "153123.189000", "153123.192000", "153123.194000", "153123.197000", "153123.200000", "153123.202000", "153123.205000", "153143.178000", "153143.181000", "153143.183000", "153143.186000", "153143.188000", "153143.191000", "153143.193000", "153143.196000", "153143.198000", "153143.201000", "153143.203000", "153143.206000", "153143.208000", "153143.211000", "153143.213000", "153143.216000", "153143.218000", "153143.221000", "153143.223000", "153143.226000", "153223.215000", "153223.218000", "153223.221000", "153223.223000", "153223.226000", "153223.228000", "153223.231000", "153223.233000", "153223.236000", "153223.238000", "153223.241000", "153223.243000", "153223.246000", "153223.248000", "153223.251000", "153223.253000", "153223.256000", "153223.259000", "153223.261000", "153223.264000", "153223.266000", "153223.269000", "153223.271000", "153223.274000", "153223.276000", "153223.279000", "153223.281000", "153223.284000", "153223.287000", "153303.195000", "153303.198000", "153303.200000", "153303.203000", "153303.205000", "153303.208000", "153303.210000", "153303.213000", "153303.215000", "153303.218000", "153303.220000", "153303.223000", "153303.226000", "153303.228000", "153303.230000", "153303.233000", "153303.236000", "153303.238000", "153303.241000", "153303.243000", "153303.246000", "153303.248000", "153303.251000", "153303.253000", "153303.256000", "153303.258000", "153303.261000", "153343.184000", "153343.186000", "153343.189000", "153343.192000", "153343.194000", "153343.197000", "153343.199000", "153343.202000", "153343.204000", "153343.207000", "153343.209000", "153343.212000", "153343.214000", "153343.217000", "153343.219000", "153343.222000", "153343.224000", "153343.227000", "153343.229000", "153343.232000", "153343.234000", "153343.237000", "153343.240000", "153343.242000", "153343.245000", "153343.247000", "153343.250000", "153423.185000", "153423.188000", "153423.190000", "153423.193000", "153423.195000", "153423.198000", "153423.200000", "153423.203000", "153423.205000", "153423.208000", "153423.210000", "153423.213000", "153423.215000", "153423.218000", "153423.220000", "153423.223000", "153423.226000", "153423.228000", "153423.231000", "153423.233000", "153423.236000", "153423.238000", "153423.241000", "153423.243000", "153423.246000", "153423.248000", "153423.251000", "153503.188000", "153503.190000", "153503.193000", "153503.195000", "153503.198000", "153503.201000", "153503.203000", "153503.206000", "153503.208000", "153503.211000", "153503.214000", "153503.216000", "153503.219000", "153503.221000", "153503.224000", "153503.226000", "153503.229000", "153503.231000", "153503.234000", "153503.236000", "153503.239000", "153503.241000", "153503.244000", "153503.246000", "153503.249000", "153503.252000", "153503.254000", "153543.202000", "153543.205000", "153543.208000", "153543.211000", "153543.213000", "153543.216000", "153543.218000", "153543.221000", "153543.223000", "153543.226000", "153543.229000", "153543.231000", "153543.234000", "153543.236000", "153543.239000", "153543.241000", "153543.244000", "153543.246000", "153543.249000", "153543.251000", "153543.254000", "153543.257000", "153543.259000", "153543.261000", "153543.264000", "153543.267000", "153623.198000", "153623.200000", "153623.203000", "153623.205000", "153623.208000", "153623.210000", "153623.213000", "153623.215000", "153623.218000", "153623.220000", "153623.223000", "153623.225000", "153623.228000", "153623.231000", "153623.233000", "153623.235000", "153623.238000", "153623.241000", "153623.243000", "153623.246000", "153623.248000", "153623.251000", "153623.253000", "153623.256000", "153623.259000", "153623.261000", "153623.264000", "153703.213000", "153703.215000", "153703.218000", "153703.220000", "153703.223000", "153703.225000", "153703.228000", "153703.230000", "153703.233000", "153703.235000", "153703.238000", "153703.240000", "153703.243000", "153703.246000", "153703.248000", "153703.251000", "153703.253000", "153703.256000", "153703.258000", "153703.261000", "153703.263000", "153703.266000", "153703.268000", "153703.271000", "153703.273000", "153703.276000", "153703.278000", "153743.197000", "153743.200000", "153743.203000", "153743.205000", "153743.208000", "153743.210000", "153743.213000", "153743.215000", "153743.218000", "153743.220000", "153743.223000", "153743.226000", "153743.228000", "153743.231000", "153743.233000", "153743.236000", "153743.238000", "153743.241000", "153743.243000", "153743.246000", "153743.249000", "153743.251000", "153743.254000", "153743.256000", "153743.259000", "153743.261000", "153743.264000", "153823.182000", "153823.185000", "153823.188000", "153823.190000", "153823.193000", "153823.195000", "153823.198000", "153823.200000", "153823.203000", "153823.205000", "153823.208000", "153823.210000", "153823.213000", "153823.215000", "153823.218000", "153823.220000", "153823.223000", "153823.226000", "153823.228000", "153823.231000", "153823.233000", "153823.236000", "153823.238000", "153823.241000", "153823.243000", "153823.246000", "153823.248000", "153903.202000", "153903.205000", "153903.207000", "153903.210000", "153903.212000", "153903.215000", "153903.217000", "153903.220000", "153903.223000", "153903.225000", "153903.228000", "153903.230000", "153903.233000", "153903.235000", "153903.238000", "153903.240000", "153903.243000", "153903.245000", "153903.248000", "153903.250000", "153903.253000", "153903.256000", "153903.258000", "153903.261000", "153903.264000", "153903.266000", "153903.269000", "153943.536000", "153943.539000", "153943.542000", "153943.545000", "153943.547000", "153943.549000", "153943.552000", "153943.555000", "153943.557000", "153943.560000", "153943.562000", "153943.565000", "153943.567000", "153943.570000", "153943.572000", "153943.575000", "153943.578000", "153943.580000", "153943.582000", "153943.585000", "153943.588000", "153943.590000", "153943.593000", "153943.595000", "153943.598000", "153943.600000", "153947.756000", "153947.759000", "153947.762000", "153947.764000"],
