{
  "AcquisitionMatrixPE": 104,
  "AcquisitionNumber": 1,
  "AcquisitionTime": "15:54:45.447500",
  "BandwidthPerPixelPhaseEncode": 17.17,
  "BaseResolution": 104,
  "BodyPartExamined": "BRAIN",
  "CoilString": "HC1-7;NC1_2",
  "ConsistencyInfo": "N4_VE11C_LATEST_20160120",
  "ConversionSoftware": "dcm2niix",
  "ConversionSoftwareVersion": "v1.0.20190902",
  "DerivedVendorReportedEchoSpacing": 0.000560011,
  "DeviceSerialNumber": "167006",
  "DwellTime": 2.1e-06,
  "EchoTime": 0.037,
  "EchoTrainLength": 104,
  "EffectiveEchoSpacing": 0.000560011,
  "FlipAngle": 52,
  "HeudiconvVersion": "0.10.0",
  "ImageComments": "Unaliased_MB4_PE3_LB",
  "ImageOrientationPatientDICOM": [0.998219, -0.0519922, 0.0292474, 0.0586059, 0.946228, -0.318148],
  "ImageType": [
    "ORIGINAL",
    "PRIMARY",
    "M",
    "MB",
    "ND",
    "MOSAIC"
],
  "ImagingFrequency": 123.259,
  "InPlanePhaseEncodingDirectionDICOM": "COL",
  "InstitutionAddress": "Chemin_Queen-Mary_4565_Montreal_District_CA_H3W_1W5",
  "InstitutionName": "IUGM",
  "InstitutionalDepartmentName": "Department",
  "MRAcquisitionType": "2D",
  "MagneticFieldStrength": 3,
  "Manufacturer": "Siemens",
  "ManufacturersModelName": "Prisma_fit",
  "Modality": "MR",
  "MultibandAccelerationFactor": 4,
  "PartialFourier": 1,
  "PatientPosition": "HFS",
  "PercentPhaseFOV": 100,
  "PhaseEncodingDirection": "j",
  "PhaseEncodingSteps": 104,
  "PhaseResolution": 1,
  "PixelBandwidth": 2290,
  "ProcedureStepDescription": "games_mario",
  "ProtocolName": "func_task-mario_run-03",
  "PulseSequenceDetails": "%CustomerSeq%_cmrr_mbep2d_bold",
  "ReceiveCoilActiveElements": "HC1-7;NC1,2",
  "ReceiveCoilName": "HeadNeck_64",
  "ReconMatrixPE": 104,
  "RepetitionTime": 1.49,
  "SAR": 0.0448577,
  "ScanOptions": "FS",
  "ScanningSequence": "EP",
  "SequenceName": "epfid2d1_104",
  "SequenceVariant": "SK_SS",
  "SeriesDescription": "func_task-mario_run-03",
  "SeriesNumber": 16,
  "ShimSetting": [633, -7250, -8817, 639, 10, -212, -47, -5],
  "SliceThickness": 2,
  "SliceTiming": [0, 0.785, 0.0975, 0.8825, 0.195, 0.98, 0.295, 1.0775, 0.3925, 1.175, 0.49, 1.275, 0.5875, 1.3725, 0.685, 0, 0.785, 0.0975, 0.8825, 0.195, 0.98, 0.295, 1.0775, 0.3925, 1.175, 0.49, 1.275, 0.5875, 1.3725, 0.685, 0, 0.785, 0.0975, 0.8825, 0.195, 0.98, 0.295, 1.0775, 0.3925, 1.175, 0.49, 1.275, 0.5875, 1.3725, 0.685, 0, 0.785, 0.0975, 0.8825, 0.195, 0.98, 0.295, 1.0775, 0.3925, 1.175, 0.49, 1.275, 0.5875, 1.3725, 0.685],
  "SoftwareVersions": "syngo_MR_E11",
  "SpacingBetweenSlices": 2,
  "StationName": "MRC35049",
  "TaskName": "mario",
  "TotalReadoutTime": 0.0576811,
  "TxRefAmp": 243.746,
  "WipMemBlock": "598e7bb5-625e-493f-9599-a993087a2a83||Sequence: R016 ve11c/master r/e634e98; Dec 19 2017 11:00:25 by eja",
  "dcmmeta_affine": [
    [-1.9964382648468018, 0.11721174418926239, 0.02226700447499752, 100.42766571044922],
    [0.10398446768522263, 1.8924559354782104, -0.638590395450592, -69.32792663574219],
    [0.05849481001496315, 0.63629549741745, 1.8951797485351562, -67.91820526123047],
    [0.0, 0.0, 0.0, 1.0]
],
  "dcmmeta_reorient_transform": [
    [0.0, -1.0, 0.0, 103.0],
    [1.0, 0.0, 0.0, 0.0],
    [0.0, 0.0, 1.0, 0.0],
    [0.0, 0.0, 0.0, 1.0]
],
  "dcmmeta_shape": [104, 104, 60, 447],
  "dcmmeta_slice_dim": 2,
  "dcmmeta_version": 0.6,
  "global": {
    "const": {
      "AcquisitionMatrix": [104, 0, 0, 104],
      "AngioFlag": "N",
      "BitsAllocated": 16,
      "BitsStored": 16,
      "BodyPartExamined": "BRAIN",
      "Columns": 832,
      "EchoNumbers": 1,
      "EchoTime": 37.0,
      "EchoTrainLength": 104,
      "FlipAngle": 52.0,
      "HighBit": 15,
      "ImageOrientationPatient": [0.99821911274336, -0.0519922321108, 0.02924740593637, 0.05860587062447, 0.94622796990962, -0.3181477343768],
      "ImagePositionPatient": [-881.86905937027, -776.59865060279, 207.93966585275],
      "ImageType": [
        "ORIGINAL",
        "PRIMARY",
        "M",
        "MB",
        "ND",
        "MOSAIC"
],
      "ImagedNucleus": "1H",
      "ImagingFrequency": 123.258939,
      "InPlanePhaseEncodingDirection": "COL",
      "MRAcquisitionType": "2D",
      "MagneticFieldStrength": 3.0,
      "Manufacturer": "SIEMENS",
      "ManufacturerModelName": "Prisma_fit",
      "Modality": "MR",
      "NumberOfAverages": 1.0,
      "NumberOfPhaseEncodingSteps": 104,
      "PercentPhaseFieldOfView": 100.0,
      "PercentSampling": 100.0,
      "PerformedProcedureStepStartTime": "150624.917000",
      "PhotometricInterpretation": "MONOCHROME2",
      "PixelBandwidth": 2290.0,
      "PixelRepresentation": 0,
      "PixelSpacing": [2.0, 2.0],
      "ProtocolName": "func_task-mario_run-03",
      "RepetitionTime": 1490.0,
      "Rows": 832,
      "SAR": 0.04485765371662,
      "SamplesPerPixel": 1,
      "ScanOptions": "FS",
      "ScanningSequence": "EP",
      "SequenceName": "epfid2d1_104",
      "SequenceVariant": [
        "SK",
        "SS"
],
      "SeriesDescription": "func_task-mario_run-03",
      "SeriesNumber": 16,
      "SeriesTime": "155609.894000",
      "SliceLocation": -41.104418482026,
      "SliceThickness": 2.0,
      "SmallestImagePixelValue": 0,
      "SoftwareVersions": "syngo MR E11",
      "SpacingBetweenSlices": 1.9999999573957,
      "SpecificCharacterSet": "ISO_IR 100",
      "StudyID": "1",
      "StudyTime": "150624.855000",
      "TransmitCoilName": "Body",
      "VariableFlipAngleFlag": "N",
      "WindowCenterWidthExplanation": "Algo1",
      "dBdt": 0.0},
    "slices": {}
  },
  "time": {
    "samples": {
      "AcquisitionNumber": [1, 2, 3, 4, 5, 6, 7, 8, 9, 10, 11, 12, 13, 14, 15, 16, 17, 18, 19, 20, 21, 22, 23, 24, 25, 26, 27, 28, 29, 30, 31, 32, 33, 34, 35, 36, 37, 38, 39, 40, 41, 42, 43, 44, 45, 46, 47, 48, 49, 50, 51, 52, 53, 54, 55, 56, 57, 58, 59, 60, 61, 62, 63, 64, 65, 66, 67, 68, 69, 70, 71, 72, 73, 74, 75, 76, 77, 78, 79, 80, 81, 82, 83, 84, 85, 86, 87, 88, 89, 90, 91, 92, 93, 94, 95, 96, 97, 98, 99, 100, 101, 102, 103, 104, 105, 106, 107, 108, 109, 110, 111, 112, 113, 114, 115, 116, 117, 118, 119, 120, 121, 122, 123, 124, 125, 126, 127, 128, 129, 130, 131, 132, 133, 134, 135, 136, 137, 138, 139, 140, 141, 142, 143, 144, 145, 146, 147, 148, 149, 150, 151, 152, 153, 154, 155, 156, 157, 158, 159, 160, 161, 162, 163, 164, 165, 166, 167, 168, 169, 170, 171, 172, 173, 174, 175, 176, 177, 178, 179, 180, 181, 182, 183, 184, 185, 186, 187, 188, 189, 190, 191, 192, 193, 194, 195, 196, 197, 198, 199, 200, 201, 202, 203, 204, 205, 206, 207, 208, 209, 210, 211, 212, 213, 214, 215, 216, 217, 218, 219, 220, 221, 222, 223, 224, 225, 226, 227, 228, 229, 230, 231, 232, 233, 234, 235, 236, 237, 238, 239, 240, 241, 242, 243, 244, 245, 246, 247, 248, 249, 250, 251, 252, 253, 254, 255, 256, 257, 258, 259, 260, 261, 262, 263, 264, 265, 266, 267, 268, 269, 270, 271, 272, 273, 274, 275, 276, 277, 278, 279, 280, 281, 282, 283, 284, 285, 286, 287, 288, 289, 290, 291, 292, 293, 294, 295, 296, 297, 298, 299, 300, 301, 302, 303, 304, 305, 306, 307, 308, 309, 310, 311, 312, 313, 314, 315, 316, 317, 318, 319, 320, 321, 322, 323, 324, 325, 326, 327, 328, 329, 330, 331, 332, 333, 334, 335, 336, 337, 338, 339, 340, 341, 342, 343, 344, 345, 346, 347, 348, 349, 350, 351, 352, 353, 354, 355, 356, 357, 358, 359, 360, 361, 362, 363, 364, 365, 366, 367, 368, 369, 370, 371, 372, 373, 374, 375, 376, 377, 378, 379, 380, 381, 382, 383, 384, 385, 386, 387, 388, 389, 390, 391, 392, 393, 394, 395, 396, 397, 398, 399, 400, 401, 402, 403, 404, 405, 406, 407, 408, 409, 410, 411, 412, 413, 414, 415, 416, 417, 418, 419, 420, 421, 422, 423, 424, 425, 426, 427, 428, 429, 430, 431, 432, 433, 434, 435, 436, 437, 438, 439, 440, 441, 442, 443, 444, 445, 446, 447],
      "AcquisitionTime": ["155445.447500", "155446.937500", "155448.427500", "155449.917500", "155451.407500", "155452.897500", "155454.387500", "155455.877500", "155457.367500", "155458.857500", "155500.347500", "155501.837500", "155503.327500", "155504.817500", "155506.307500", "155507.797500", "155509.287500", "155510.777500", "155512.267500", "155513.757500", "155515.247500", "155516.737500", "155518.227500", "155519.717500", "155521.207500", "155522.697500", "155524.187500", "155525.677500", "155527.167500", "155528.657500", "155530.147500", "155531.637500", "155533.127500", "155534.617500", "155536.107500", "155537.597500", "155539.087500", "155540.577500", "155542.067500", "155543.557500", "155545.047500", "155546.537500", "155548.027500", "155549.517500", "155551.007500", "155552.497500", "155553.987500", "155555.477500", "155556.967500", "155558.457500", "155559.947500", "155601.437500", "155602.927500", "155604.417500", "155605.907500", "155607.397500", "155608.887500", "155610.377500", "155611.867500", "155613.357500", "155614.847500", "155616.337500", "155617.827500", "155619.317500", "155620.807500", "155622.297500", "155623.787500", "155625.277500", "155626.767500", "155628.257500", "155629.747500", "155631.237500", "155632.727500", "155634.217500", "155635.707500", "155637.197500", "155638.687500", "155640.177500", "155641.667500", "155643.157500", "155644.647500", "155646.137500", "155647.627500", "155649.117500", "155650.607500", "155652.097500", "155653.587500", "155655.077500", "155656.567500", "155658.057500", "155659.547500", "155701.037500", "155702.527500", "155704.017500", "155705.507500", "155706.997500", "155708.487500", "155709.977500", "155711.467500", "155712.957500", "155714.447500", "155715.937500", "155717.427500", "155718.917500", "155720.407500", "155721.897500", "155723.387500", "155724.877500", "155726.367500", "155727.857500", "155729.347500", "155730.837500", "155732.327500", "155733.817500", "155735.307500", "155736.797500", "155738.287500", "155739.777500", "155741.267500", "155742.757500", "155744.247500", "155745.737500", "155747.227500", "155748.717500", "155750.207500", "155751.697500", "155753.187500", "155754.677500", "155756.167500", "155757.657500", "155759.147500", "155800.637500", "155802.127500", "155803.617500", "155805.107500", "155806.597500", "155808.087500", "155809.577500", "155811.067500", "155812.557500", "155814.047500", "155815.537500", "155817.027500", "155818.517500", "155820.007500", "155821.497500", "155822.987500", "155824.477500", "155825.967500", "155827.457500", "155828.947500", "155830.437500", "155831.927500", "155833.417500", "155834.907500", "155836.397500", "155837.887500", "155839.377500", "155840.867500", "155842.357500", "155843.847500", "155845.337500", "155846.827500", "155848.317500", "155849.807500", "155851.297500", "155852.787500", "155854.277500", "155855.767500", "155857.257500", "155858.747500", "155900.237500", "155901.727500", "155903.217500", "155904.707500", "155906.197500", "155907.687500", "155909.177500", "155910.667500", "155912.157500", "155913.647500", "155915.137500", "155916.627500", "155918.117500", "155919.607500", "155921.097500", "155922.587500", "155924.077500", "155925.567500", "155927.057500", "155928.547500", "155930.037500", "155931.527500", "155933.017500", "155934.507500", "155935.997500", "155937.487500", "155938.977500", "155940.467500", "155941.957500", "155943.447500", "155944.937500", "155946.427500", "155947.917500", "155949.407500", "155950.897500", "155952.387500", "155953.877500", "155955.367500", "155956.857500", "155958.347500", "155959.837500", "160001.327500", "160002.817500", "160004.307500", "160005.797500", "160007.287500", "160008.777500", "160010.267500", "160011.757500", "160013.247500", "160014.737500", "160016.227500", "160017.717500", "160019.207500", "160020.697500", "160022.187500", "160023.677500", "160025.167500", "160026.657500", "160028.147500", "160029.637500", "160031.127500", "160032.617500", "160034.107500", "160035.597500", "160037.087500", "160038.577500", "160040.067500", "160041.557500", "160043.047500", "160044.537500", "160046.027500", "160047.517500", "160049.007500", "160050.497500", "160051.987500", "160053.477500", "160054.967500", "160056.457500", "160057.947500", "160059.437500", "160100.927500", "160102.417500", "160103.907500", "160105.397500", "160106.887500", "160108.377500", "160109.867500", "160111.357500", "160112.847500", "160114.337500", "160115.827500", "160117.317500", "160118.807500", "160120.297500", "160121.787500", "160123.277500", "160124.767500", "160126.257500", "160127.747500", "160129.237500", "160130.727500", "160132.217500", "160133.707500", "160135.197500", "160136.687500", "160138.177500", "160139.667500", "160141.157500", "160142.647500", "160144.137500", "160145.627500", "160147.117500", "160148.607500", "160150.097500", "160151.587500", "160153.077500", "160154.567500", "160156.057500", "160157.547500", "160159.037500", "160200.527500", "160202.017500", "160203.507500", "160204.997500", "160206.487500", "160207.977500", "160209.467500", "160210.957500", "160212.447500", "160213.937500", "160215.427500", "160216.917500", "160218.407500", "160219.897500", "160221.387500", "160222.877500", "160224.367500", "160225.857500", "160227.347500", "160228.837500", "160230.327500", "160231.817500", "160233.307500", "160234.797500", "160236.287500", "160237.777500", "160239.267500", "160240.757500", "160242.247500", "160243.737500", "160245.227500", "160246.717500", "160248.207500", "160249.697500", "160251.187500", "160252.677500", "160254.167500", "160255.657500", "160257.147500", "160258.637500", "160300.127500", "160301.617500", "160303.107500", "160304.597500", "160306.087500", "160307.577500", "160309.067500", "160310.557500", "160312.047500", "160313.537500", "160315.027500", "160316.517500", "160318.007500", "160319.497500", "160320.987500", "160322.477500", "160323.967500", "160325.457500", "160326.947500", "160328.437500", "160329.927500", "160331.417500", "160332.907500", "160334.397500", "160335.887500", "160337.377500", "160338.867500", "160340.357500", "160341.847500", "160343.337500", "160344.827500", "160346.317500", "160347.807500", "160349.297500", "160350.787500", "160352.277500", "160353.767500", "160355.257500", "160356.747500", "160358.237500", "160359.727500", "160401.217500", "160402.707500", "160404.197500", "160405.687500", "160407.177500", "160408.667500", "160410.157500", "160411.647500", "160413.137500", "160414.627500", "160416.117500", "160417.607500", "160419.097500", "160420.587500", "160422.077500", "160423.567500", "160425.057500", "160426.547500", "160428.037500", "160429.527500", "160431.017500", "160432.507500", "160433.997500", "160435.487500", "160436.977500", "160438.467500", "160439.957500", "160441.447500", "160442.937500", "160444.427500", "160445.917500", "160447.407500", "160448.897500", "160450.387500", "160451.877500", "160453.367500", "160454.857500", "160456.347500", "160457.837500", "160459.327500", "160500.817500", "160502.307500", "160503.797500", "160505.287500", "160506.777500", "160508.267500", "160509.757500", "160511.247500", "160512.737500", "160514.227500", "160515.717500", "160517.207500", "160518.697500", "160520.187500", "160521.677500", "160523.167500", "160524.657500", "160526.147500", "160527.637500", "160529.127500", "160530.617500", "160532.107500", "160533.597500", "160535.087500", "160536.577500", "160538.067500", "160539.557500", "160541.047500", "160542.537500", "160544.027500", "160545.517500", "160547.007500", "160548.497500", "160549.987500"],
      "ContentTime": ["155609.898000", "155609.901000", "155609.905000", "155609.908000", "155609.911000", "155609.915000", "155609.918000", "155609.921000", "155609.925000", "155609.928000", "155609.931000", "155609.935000", "155609.938000", "155609.941000", "155609.944000", "155609.948000", "155609.951000", "155609.954000", "155609.958000", "155609.968000", "155609.971000", "155609.975000", "155609.978000", "155609.981000", "155609.985000", "155609.988000", "155609.991000", "155609.995000", "155609.998000", "155610.002000", "155610.005000", "155629.852000", "155629.856000", "155629.859000", "155629.863000", "155629.866000", "155629.869000", "155629.872000", "155629.886000", "155629.889000", "155629.892000", "155629.895000", "155629.899000", "155629.902000", "155629.905000", "155629.909000", "155629.912000", "155629.915000", "155629.919000", "155629.922000", "155629.925000", "155649.852000", "155649.856000", "155649.859000", "155649.863000", "155649.866000", "155649.869000", "155649.872000", "155649.876000", "155649.883000", "155649.886000", "155649.890000", "155649.893000", "155649.897000", "155649.900000", "155649.903000", "155649.907000", "155649.910000", "155649.913000", "155649.917000", "155649.920000", "155649.923000", "155709.853000", "155709.857000", "155709.860000", "155709.863000", "155709.867000", "155709.870000", "155709.873000", "155709.877000", "155709.880000", "155709.883000", "155709.887000", "155709.890000", "155709.893000", "155709.897000", "155709.900000", "155709.903000", "155709.906000", "155709.910000", "155709.913000", "155709.916000", "155749.852000", "155749.867000", "155749.871000", "155749.874000", "155749.877000", "155749.881000", "155749.884000", "155749.887000", "155749.891000", "155749.894000", "155749.897000", "155749.901000", "155749.904000", "155749.907000", "155749.911000", "155749.914000", "155749.917000", "155749.920000", "155749.924000", "155749.927000", "155749.930000", "155749.934000", "155749.937000", "155749.940000", "155749.944000", "155749.947000", "155749.950000", "155749.954000", "155749.957000", "155749.960000", "155749.964000", "155829.852000", "155829.856000", "155829.859000", "155829.863000", "155829.866000", "155829.869000", "155829.873000", "155829.876000", "155829.879000", "155829.883000", "155829.887000", "155829.890000", "155829.893000", "155829.896000", "155829.900000", "155829.903000", "155829.907000", "155829.910000", "155829.913000", "155829.917000", "155829.920000", "155829.923000", "155829.927000", "155829.930000", "155829.933000", "155829.936000", "155829.940000", "155909.853000", "155909.864000", "155909.868000", "155909.871000", "155909.874000", "155909.878000", "155909.881000", "155909.884000", "155909.888000", "155909.891000", "155909.894000", "155909.898000", "155909.901000", "155909.905000", "155909.908000", "155909.911000", "155909.914000", "155909.918000", "155909.921000", "155909.924000", "155909.928000", "155909.931000", "155909.934000", "155909.938000", "155909.941000", "155909.944000", "155909.948000", "155949.853000", "155949.857000", "155949.860000", "155949.863000", "155949.867000", "155949.870000", "155949.873000", "155949.877000", "155949.880000", "155949.884000", "155949.887000", "155949.890000", "155949.894000", "155949.897000", "155949.900000", "155949.904000", "155949.907000", "155949.910000", "155949.914000", "155949.917000", "155949.920000", "155949.924000", "155949.927000", "155949.931000", "155949.934000", "155949.937000", "155949.940000", "160029.853000", "160029.858000", "160029.861000", "160029.865000", "160029.868000", "160029.872000", "160029.875000", "160029.879000", "160029.882000", "160029.885000", "160029.889000", "160029.892000", "160029.896000", "160029.899000", "160029.903000", "160029.906000", "160029.909000", "160029.913000", "160029.916000", "160029.920000", "160029.923000", "160029.927000", "160029.930000", "160029.933000", "160029.937000", "160029.940000", "160109.852000", "160109.856000", "160109.859000", "160109.863000", "160109.866000", "160109.870000", "160109.873000", "160109.876000", "160109.880000", "160109.883000", "160109.887000", "160109.890000", "160109.893000", "160109.897000", "160109.900000", "160109.904000", "160109.907000", "160109.910000", "160109.914000", "160109.917000", "160109.920000", "160109.924000", "160109.928000", "160109.931000", "160109.934000", "160109.938000", "160109.941000", "160149.853000", "160149.857000", "160149.860000", "160149.864000", "160149.867000", "160149.871000", "160149.874000", "160149.877000", "160149.881000", "160149.884000", "160149.888000", "160149.891000", "160149.894000", "160149.898000", "160149.901000", "160149.904000", "160149.908000", "160149.911000", "160149.914000", "160149.918000", "160149.921000", "160149.924000", "160149.928000", "160149.931000", "160149.934000", "160149.938000", "160149.941000", "160229.852000", "160229.856000", "160229.859000", "160229.863000", "160229.866000", "160229.869000", "160229.873000", "160229.876000", "160229.879000", "160229.899000", "160229.902000", "160229.906000", "160229.909000", "160229.912000", "160229.916000", "160229.919000", "160229.922000", "160229.926000", "160229.929000", "160229.933000", "160229.936000", "160229.939000", "160229.943000", "160229.946000", "160229.950000", "160229.953000", "160229.956000", "160309.852000", "160309.856000", "160309.859000", "160309.863000", "160309.866000", "160309.870000", "160309.873000", "160309.877000", "160309.880000", "160309.883000", "160309.887000", "160309.890000", "160309.894000", "160309.897000", "160309.900000", "160309.904000", "160309.907000", "160309.910000", "160309.914000", "160309.917000", "160309.920000", "160309.924000", "160309.927000", "160309.930000", "160309.934000", "160309.937000", "160309.940000", "160349.852000", "160349.857000", "160349.860000", "160349.864000", "160349.867000", "160349.871000", "160349.875000", "160349.878000", "160349.882000", "160349.886000", "160349.889000", "160349.892000", "160349.896000", "160349.900000", "160349.903000", "160349.907000", "160349.911000", "160349.914000", "160349.918000", "160349.921000", "160349.925000", "160349.929000", "160349.932000", "160349.936000", "160349.939000", "160349.943000", "160349.946000", "160429.852000", "160429.856000", "160429.860000", "160429.864000", "160429.867000", "160429.871000", "160429.875000", "160429.878000", "160429.882000", "160429.887000", "160429.890000", "160429.894000", "160429.898000", "160429.902000", "160429.905000", "160429.908000", "160429.912000", "160429.915000", "160429.919000", "160429.922000", "160429.925000", "160429.929000", "160429.932000", "160429.935000", "160429.939000", "160429.942000", "160509.852000", "160509.856000", "160509.859000", "160509.863000", "160509.866000", "160509.869000", "160509.873000", "160509.876000", "160509.880000", "160509.883000", "160509.886000", "160509.890000", "160509.893000", "160509.896000", "160509.900000", "160509.903000", "160509.907000", "160509.910000", "160509.913000", "160509.917000", "160509.920000", "160509.923000", "160509.926000", "160509.930000", "160509.933000", "160509.936000", "160509.940000", "160549.852000", "160549.856000", "160549.860000", "160549.863000", "160549.866000", "160549.870000", "160549.873000", "160549.876000", "160549.880000", "160549.883000", "160549.886000", "160549.890000", "160549.893000", "160549.897000", "160549.900000", "160549.903000", "160549.906000", "160549.910000", "160549.913000", "160549.917000", "160549.920000", "160549.923000", "160549.927000", "160549.930000", "160549.933000", "160549.937000", "160549.940000", "160552.050000", "160552.053000"],
