{
  "AcquisitionMatrixPE": 104,
  "AcquisitionNumber": 1,
  "AcquisitionTime": "15:41:32.747500",
  "BandwidthPerPixelPhaseEncode": 17.17,
  "BaseResolution": 104,
  "BodyPartExamined": "BRAIN",
  "CoilString": "HC1-7;NC1_2",
  "ConsistencyInfo": "N4_VE11C_LATEST_20160120",
  "ConversionSoftware": "dcm2niix",
  "ConversionSoftwareVersion": "v1.0.20190902",
  "DerivedVendorReportedEchoSpacing": 0.000560011,
  "DeviceSerialNumber": "167006",
  "DwellTime": 2.1e-06,
  "EchoTime": 0.037,
  "EchoTrainLength": 104,
  "EffectiveEchoSpacing": 0.000560011,
  "FlipAngle": 52,
  "HeudiconvVersion": "0.10.0",
  "ImageComments": "Unaliased_MB4_PE3_LB",
  "ImageOrientationPatientDICOM": [0.998219, -0.0519922, 0.0292474, 0.0586059, 0.946228, -0.318148],
  "ImageType": [
    "ORIGINAL",
    "PRIMARY",
    "P",
    "MB",
    "ND",
    "MOSAIC"
],
  "ImagingFrequency": 123.259,
  "InPlanePhaseEncodingDirectionDICOM": "COL",
  "InstitutionAddress": "Chemin_Queen-Mary_4565_Montreal_District_CA_H3W_1W5",
  "InstitutionName": "IUGM",
  "InstitutionalDepartmentName": "Department",
  "MRAcquisitionType": "2D",
  "MagneticFieldStrength": 3,
  "Manufacturer": "Siemens",
  "ManufacturersModelName": "Prisma_fit",
  "Modality": "MR",
  "MultibandAccelerationFactor": 4,
  "PartialFourier": 1,
  "PatientPosition": "HFS",
  "PercentPhaseFOV": 100,
  "PhaseEncodingDirection": "j",
  "PhaseEncodingSteps": 104,
  "PhaseResolution": 1,
  "PixelBandwidth": 2290,
  "ProcedureStepDescription": "games_mario",
  "ProtocolName": "func_task-mario_run-02",
  "PulseSequenceDetails": "%CustomerSeq%_cmrr_mbep2d_bold",
  "ReceiveCoilActiveElements": "HC1-7;NC1,2",
  "ReceiveCoilName": "HeadNeck_64",
  "ReconMatrixPE": 104,
  "RepetitionTime": 1.49,
  "SAR": 0.0448577,
  "ScanOptions": "FS",
  "ScanningSequence": "EP",
  "SequenceName": "epfid2d1_104",
  "SequenceVariant": "SK_SS",
  "SeriesDescription": "func_task-mario_run-02",
  "SeriesNumber": 14,
  "ShimSetting": [633, -7250, -8817, 639, 10, -212, -47, -5],
  "SliceThickness": 2,
  "SliceTiming": [0, 0.7825, 0.0975, 0.8825, 0.195, 0.98, 0.2925, 1.0775, 0.3925, 1.175, 0.49, 1.2725, 0.5875, 1.3725, 0.685, 0, 0.7825, 0.0975, 0.8825, 0.195, 0.98, 0.2925, 1.0775, 0.3925, 1.175, 0.49, 1.2725, 0.5875, 1.3725, 0.685, 0, 0.7825, 0.0975, 0.8825, 0.195, 0.98, 0.2925, 1.0775, 0.3925, 1.175, 0.49, 1.2725, 0.5875, 1.3725, 0.685, 0, 0.7825, 0.0975, 0.8825, 0.195, 0.98, 0.2925, 1.0775, 0.3925, 1.175, 0.49, 1.2725, 0.5875, 1.3725, 0.685],
  "SoftwareVersions": "syngo_MR_E11",
  "SpacingBetweenSlices": 2,
  "StationName": "MRC35049",
  "TaskName": "mario",
  "TotalReadoutTime": 0.0576811,
  "TxRefAmp": 243.746,
  "WipMemBlock": "3138e252-b82c-4705-b656-1ee50024431d||Sequence: R016 ve11c/master r/e634e98; Dec 19 2017 11:00:25 by eja",
  "dcmmeta_affine": [
    [-1.9964382648468018, 0.11721174418926239, 0.02226700447499752, 100.42766571044922],
    [0.10398446768522263, 1.8924559354782104, -0.638590395450592, -69.32792663574219],
    [0.05849481001496315, 0.63629549741745, 1.8951797485351562, -67.91820526123047],
    [0.0, 0.0, 0.0, 1.0]
],
  "dcmmeta_reorient_transform": [
    [0.0, -1.0, 0.0, 103.0],
    [1.0, 0.0, 0.0, 0.0],
    [0.0, 0.0, 1.0, 0.0],
    [0.0, 0.0, 0.0, 1.0]
],
  "dcmmeta_shape": [104, 104, 60, 462],
  "dcmmeta_slice_dim": 2,
  "dcmmeta_version": 0.6,
  "global": {
    "const": {
      "AcquisitionMatrix": [104, 0, 0, 104],
      "AngioFlag": "N",
      "BitsAllocated": 16,
      "BitsStored": 16,
      "BodyPartExamined": "BRAIN",
      "Columns": 832,
      "EchoNumbers": 1,
      "EchoTime": 37.0,
      "EchoTrainLength": 104,
      "FlipAngle": 52.0,
      "HighBit": 15,
      "ImageOrientationPatient": [0.99821911274336, -0.0519922321108, 0.02924740593637, 0.05860587062447, 0.94622796990962, -0.3181477343768],
      "ImagePositionPatient": [-881.86905937027, -776.59865060279, 207.93966585275],
      "ImageType": [
        "ORIGINAL",
        "PRIMARY",
        "P",
        "MB",
        "ND",
        "MOSAIC"
],
      "ImagedNucleus": "1H",
      "ImagingFrequency": 123.258933,
      "InPlanePhaseEncodingDirection": "COL",
      "LargestImagePixelValue": 4095,
      "MRAcquisitionType": "2D",
      "MagneticFieldStrength": 3.0,
      "Manufacturer": "SIEMENS",
      "ManufacturerModelName": "Prisma_fit",
      "Modality": "MR",
      "NumberOfAverages": 1.0,
      "NumberOfPhaseEncodingSteps": 104,
      "PercentPhaseFieldOfView": 100.0,
      "PercentSampling": 100.0,
      "PerformedProcedureStepStartTime": "150624.917000",
      "PhotometricInterpretation": "MONOCHROME2",
      "PixelBandwidth": 2290.0,
      "PixelRepresentation": 0,
      "PixelSpacing": [2.0, 2.0],
      "ProtocolName": "func_task-mario_run-02",
      "RepetitionTime": 1490.0,
      "RescaleIntercept": -4096.0,
      "RescaleSlope": 2.0,
      "RescaleType": "US",
      "Rows": 832,
      "SAR": 0.04485765371662,
      "SamplesPerPixel": 1,
      "ScanOptions": "FS",
      "ScanningSequence": "EP",
      "SequenceName": "epfid2d1_104",
      "SequenceVariant": [
        "SK",
        "SS"
],
      "SeriesDescription": "func_task-mario_run-02",
      "SeriesNumber": 14,
      "SeriesTime": "154243.060000",
      "SliceLocation": -41.104418482026,
      "SliceThickness": 2.0,
      "SmallestImagePixelValue": 0,
      "SoftwareVersions": "syngo MR E11",
      "SpacingBetweenSlices": 1.9999999573957,
      "SpecificCharacterSet": "ISO_IR 100",
      "StudyID": "1",
      "StudyTime": "150624.855000",
      "TransmitCoilName": "Body",
      "VariableFlipAngleFlag": "N",
      "WindowCenterWidthExplanation": "Algo1",
      "dBdt": 0.0},
    "slices": {}
  },
  "time": {
    "samples": {
      "AcquisitionNumber": [1, 2, 3, 4, 5, 6, 7, 8, 9, 10, 11, 12, 13, 14, 15, 16, 17, 18, 19, 20, 21, 22, 23, 24, 25, 26, 27, 28, 29, 30, 31, 32, 33, 34, 35, 36, 37, 38, 39, 40, 41, 42, 43, 44, 45, 46, 47, 48, 49, 50, 51, 52, 53, 54, 55, 56, 57, 58, 59, 60, 61, 62, 63, 64, 65, 66, 67, 68, 69, 70, 71, 72, 73, 74, 75, 76, 77, 78, 79, 80, 81, 82, 83, 84, 85, 86, 87, 88, 89, 90, 91, 92, 93, 94, 95, 96, 97, 98, 99, 100, 101, 102, 103, 104, 105, 106, 107, 108, 109, 110, 111, 112, 113, 114, 115, 116, 117, 118, 119, 120, 121, 122, 123, 124, 125, 126, 127, 128, 129, 130, 131, 132, 133, 134, 135, 136, 137, 138, 139, 140, 141, 142, 143, 144, 145, 146, 147, 148, 149, 150, 151, 152, 153, 154, 155, 156, 157, 158, 159, 160, 161, 162, 163, 164, 165, 166, 167, 168, 169, 170, 171, 172, 173, 174, 175, 176, 177, 178, 179, 180, 181, 182, 183, 184, 185, 186, 187, 188, 189, 190, 191, 192, 193, 194, 195, 196, 197, 198, 199, 200, 201, 202, 203, 204, 205, 206, 207, 208, 209, 210, 211, 212, 213, 214, 215, 216, 217, 218, 219, 220, 221, 222, 223, 224, 225, 226, 227, 228, 229, 230, 231, 232, 233, 234, 235, 236, 237, 238, 239, 240, 241, 242, 243, 244, 245, 246, 247, 248, 249, 250, 251, 252, 253, 254, 255, 256, 257, 258, 259, 260, 261, 262, 263, 264, 265, 266, 267, 268, 269, 270, 271, 272, 273, 274, 275, 276, 277, 278, 279, 280, 281, 282, 283, 284, 285, 286, 287, 288, 289, 290, 291, 292, 293, 294, 295, 296, 297, 298, 299, 300, 301, 302, 303, 304, 305, 306, 307, 308, 309, 310, 311, 312, 313, 314, 315, 316, 317, 318, 319, 320, 321, 322, 323, 324, 325, 326, 327, 328, 329, 330, 331, 332, 333, 334, 335, 336, 337, 338, 339, 340, 341, 342, 343, 344, 345, 346, 347, 348, 349, 350, 351, 352, 353, 354, 355, 356, 357, 358, 359, 360, 361, 362, 363, 364, 365, 366, 367, 368, 369, 370, 371, 372, 373, 374, 375, 376, 377, 378, 379, 380, 381, 382, 383, 384, 385, 386, 387, 388, 389, 390, 391, 392, 393, 394, 395, 396, 397, 398, 399, 400, 401, 402, 403, 404, 405, 406, 407, 408, 409, 410, 411, 412, 413, 414, 415, 416, 417, 418, 419, 420, 421, 422, 423, 424, 425, 426, 427, 428, 429, 430, 431, 432, 433, 434, 435, 436, 437, 438, 439, 440, 441, 442, 443, 444, 445, 446, 447, 448, 449, 450, 451, 452, 453, 454, 455, 456, 457, 458, 459, 460, 461, 462],
      "AcquisitionTime": ["154132.747500", "154134.237500", "154135.727500", "154137.217500", "154138.707500", "154140.197500", "154141.687500", "154143.177500", "154144.667500", "154146.157500", "154147.647500", "154149.137500", "154150.627500", "154152.117500", "154153.607500", "154155.097500", "154156.587500", "154158.077500", "154159.567500", "154201.057500", "154202.547500", "154204.037500", "154205.527500", "154207.017500", "154208.507500", "154209.997500", "154211.487500", "154212.977500", "154214.467500", "154215.957500", "154217.447500", "154218.937500", "154220.427500", "154221.917500", "154223.407500", "154224.897500", "154226.387500", "154227.877500", "154229.367500", "154230.857500", "154232.347500", "154233.837500", "154235.327500", "154236.817500", "154238.307500", "154239.797500", "154241.287500", "154242.777500", "154244.267500", "154245.757500", "154247.247500", "154248.737500", "154250.227500", "154251.717500", "154253.207500", "154254.697500", "154256.187500", "154257.677500", "154259.167500", "154300.657500", "154302.147500", "154303.637500", "154305.127500", "154306.617500", "154308.107500", "154309.597500", "154311.087500", "154312.577500", "154314.067500", "154315.557500", "154317.047500", "154318.537500", "154320.027500", "154321.517500", "154323.007500", "154324.497500", "154325.987500", "154327.477500", "154328.967500", "154330.457500", "154331.947500", "154333.437500", "154334.927500", "154336.417500", "154337.907500", "154339.397500", "154340.887500", "154342.377500", "154343.867500", "154345.357500", "154346.847500", "154348.337500", "154349.827500", "154351.317500", "154352.807500", "154354.297500", "154355.787500", "154357.277500", "154358.767500", "154400.257500", "154401.747500", "154403.237500", "154404.727500", "154406.217500", "154407.707500", "154409.197500", "154410.687500", "154412.177500", "154413.667500", "154415.157500", "154416.647500", "154418.137500", "154419.627500", "154421.117500", "154422.607500", "154424.097500", "154425.587500", "154427.077500", "154428.567500", "154430.057500", "154431.547500", "154433.037500", "154434.527500", "154436.017500", "154437.507500", "154438.997500", "154440.487500", "154441.977500", "154443.467500", "154444.957500", "154446.447500", "154447.937500", "154449.427500", "154450.917500", "154452.407500", "154453.897500", "154455.387500", "154456.877500", "154458.367500", "154459.857500", "154501.347500", "154502.837500", "154504.327500", "154505.817500", "154507.307500", "154508.797500", "154510.287500", "154511.777500", "154513.267500", "154514.757500", "154516.247500", "154517.737500", "154519.227500", "154520.717500", "154522.207500", "154523.697500", "154525.187500", "154526.677500", "154528.167500", "154529.657500", "154531.147500", "154532.637500", "154534.127500", "154535.617500", "154537.107500", "154538.597500", "154540.087500", "154541.577500", "154543.067500", "154544.557500", "154546.047500", "154547.537500", "154549.027500", "154550.517500", "154552.007500", "154553.497500", "154554.987500", "154556.477500", "154557.967500", "154559.457500", "154600.947500", "154602.437500", "154603.927500", "154605.417500", "154606.907500", "154608.397500", "154609.887500", "154611.377500", "154612.867500", "154614.357500", "154615.847500", "154617.337500", "154618.827500", "154620.317500", "154621.807500", "154623.297500", "154624.787500", "154626.277500", "154627.767500", "154629.257500", "154630.747500", "154632.237500", "154633.727500", "154635.217500", "154636.707500", "154638.197500", "154639.687500", "154641.177500", "154642.667500", "154644.157500", "154645.647500", "154647.137500", "154648.627500", "154650.117500", "154651.607500", "154653.097500", "154654.587500", "154656.077500", "154657.567500", "154659.057500", "154700.547500", "154702.037500", "154703.527500", "154705.017500", "154706.507500", "154707.997500", "154709.487500", "154710.977500", "154712.467500", "154713.957500", "154715.447500", "154716.937500", "154718.427500", "154719.917500", "154721.407500", "154722.897500", "154724.387500", "154725.877500", "154727.367500", "154728.857500", "154730.347500", "154731.837500", "154733.327500", "154734.817500", "154736.307500", "154737.797500", "154739.287500", "154740.777500", "154742.267500", "154743.757500", "154745.247500", "154746.737500", "154748.227500", "154749.717500", "154751.207500", "154752.697500", "154754.187500", "154755.677500", "154757.167500", "154758.657500", "154800.147500", "154801.637500", "154803.127500", "154804.617500", "154806.107500", "154807.597500", "154809.087500", "154810.577500", "154812.067500", "154813.557500", "154815.047500", "154816.537500", "154818.027500", "154819.517500", "154821.007500", "154822.497500", "154823.987500", "154825.477500", "154826.967500", "154828.457500", "154829.947500", "154831.437500", "154832.927500", "154834.417500", "154835.907500", "154837.397500", "154838.887500", "154840.377500", "154841.867500", "154843.357500", "154844.847500", "154846.337500", "154847.827500", "154849.317500", "154850.807500", "154852.297500", "154853.787500", "154855.277500", "154856.767500", "154858.257500", "154859.747500", "154901.237500", "154902.727500", "154904.217500", "154905.707500", "154907.197500", "154908.687500", "154910.177500", "154911.667500", "154913.157500", "154914.647500", "154916.137500", "154917.627500", "154919.117500", "154920.607500", "154922.097500", "154923.587500", "154925.077500", "154926.567500", "154928.057500", "154929.547500", "154931.037500", "154932.527500", "154934.017500", "154935.507500", "154936.997500", "154938.487500", "154939.977500", "154941.467500", "154942.957500", "154944.447500", "154945.937500", "154947.427500", "154948.917500", "154950.407500", "154951.897500", "154953.387500", "154954.877500", "154956.367500", "154957.857500", "154959.347500", "155000.837500", "155002.327500", "155003.817500", "155005.307500", "155006.797500", "155008.287500", "155009.777500", "155011.267500", "155012.757500", "155014.247500", "155015.737500", "155017.227500", "155018.717500", "155020.207500", "155021.697500", "155023.187500", "155024.677500", "155026.167500", "155027.657500", "155029.147500", "155030.637500", "155032.127500", "155033.617500", "155035.107500", "155036.597500", "155038.087500", "155039.577500", "155041.067500", "155042.557500", "155044.047500", "155045.537500", "155047.027500", "155048.517500", "155050.007500", "155051.497500", "155052.987500", "155054.477500", "155055.967500", "155057.457500", "155058.947500", "155100.437500", "155101.927500", "155103.417500", "155104.907500", "155106.397500", "155107.887500", "155109.377500", "155110.867500", "155112.357500", "155113.847500", "155115.337500", "155116.827500", "155118.317500", "155119.807500", "155121.297500", "155122.787500", "155124.277500", "155125.767500", "155127.257500", "155128.747500", "155130.237500", "155131.727500", "155133.217500", "155134.707500", "155136.197500", "155137.687500", "155139.177500", "155140.667500", "155142.157500", "155143.647500", "155145.137500", "155146.627500", "155148.117500", "155149.607500", "155151.097500", "155152.587500", "155154.077500", "155155.567500", "155157.057500", "155158.547500", "155200.037500", "155201.527500", "155203.017500", "155204.507500", "155205.997500", "155207.487500", "155208.977500", "155210.467500", "155211.957500", "155213.447500", "155214.937500", "155216.427500", "155217.917500", "155219.407500", "155220.897500", "155222.387500", "155223.877500", "155225.367500", "155226.857500", "155228.347500", "155229.837500", "155231.327500", "155232.817500", "155234.307500", "155235.797500", "155237.287500", "155238.777500", "155240.267500", "155241.757500", "155243.247500", "155244.737500", "155246.227500", "155247.717500", "155249.207500", "155250.697500", "155252.187500", "155253.677500", "155255.167500", "155256.657500", "155258.147500", "155259.637500"],
      "ContentTime": ["154243.062000", "154243.065000", "154243.067000", "154243.070000", "154243.073000", "154243.077000", "154243.083000", "154243.086000", "154243.089000", "154243.092000", "154243.094000", "154243.097000", "154243.100000", "154243.102000", "154243.108000", "154243.111000", "154303.064000", "154303.067000", "154303.069000", "154303.076000", "154303.079000", "154303.081000", "154303.083000", "154303.086000", "154303.089000", "154303.091000", "154303.094000", "154303.096000", "154303.099000", "154303.101000", "154303.103000", "154303.106000", "154303.109000", "154303.111000", "154303.113000", "154303.116000", "154323.069000", "154323.071000", "154323.074000", "154323.077000", "154323.079000", "154323.082000", "154323.084000", "154323.087000", "154323.089000", "154323.092000", "154323.094000", "154323.097000", "154323.099000", "154323.102000", "154323.104000", "154323.107000", "154323.109000", "154323.111000", "154323.114000", "154323.117000", "154323.119000", "154343.056000", "154343.059000", "154343.061000", "154343.064000", "154343.066000", "154343.069000", "154343.071000", "154343.074000", "154343.076000", "154343.079000", "154343.081000", "154343.084000", "154343.086000", "154343.089000", "154343.091000", "154343.094000", "154343.096000", "154343.099000", "154343.101000", "154343.104000", "154403.045000", "154403.048000", "154403.050000", "154403.053000", "154403.055000", "154403.058000", "154403.061000", "154403.063000", "154403.065000", "154403.068000", "154403.071000", "154403.073000", "154403.076000", "154403.078000", "154403.081000", "154403.083000", "154403.086000", "154403.088000", "154403.091000", "154403.093000", "154443.093000", "154443.096000", "154443.098000", "154443.101000", "154443.103000", "154443.106000", "154443.108000", "154443.111000", "154443.114000", "154443.116000", "154443.119000", "154443.121000", "154443.124000", "154443.126000", "154443.129000", "154443.131000", "154443.134000", "154443.136000", "154443.139000", "154443.141000", "154443.144000", "154443.147000", "154443.149000", "154443.152000", "154443.154000", "154443.157000", "154443.159000", "154443.162000", "154443.165000", "154523.089000", "154523.091000", "154523.094000", "154523.096000", "154523.099000", "154523.102000", "154523.104000", "154523.107000", "154523.110000", "154523.112000", "154523.115000", "154523.117000", "154523.120000", "154523.122000", "154523.125000", "154523.127000", "154523.130000", "154523.132000", "154523.135000", "154523.137000", "154523.140000", "154523.142000", "154523.145000", "154523.147000", "154523.150000", "154523.152000", "154523.155000", "154603.068000", "154603.070000", "154603.073000", "154603.076000", "154603.078000", "154603.081000", "154603.083000", "154603.086000", "154603.088000", "154603.091000", "154603.093000", "154603.096000", "154603.098000", "154603.101000", "154603.103000", "154603.106000", "154603.108000", "154603.111000", "154603.114000", "154603.116000", "154603.118000", "154603.121000", "154603.124000", "154603.126000", "154603.129000", "154603.131000", "154603.134000", "154643.081000", "154643.084000", "154643.086000", "154643.089000", "154643.091000", "154643.094000", "154643.096000", "154643.099000", "154643.102000", "154643.104000", "154643.107000", "154643.109000", "154643.112000", "154643.114000", "154643.117000", "154643.119000", "154643.122000", "154643.124000", "154643.127000", "154643.129000", "154643.132000", "154643.134000", "154643.137000", "154643.139000", "154643.142000", "154643.144000", "154643.147000", "154723.083000", "154723.085000", "154723.088000", "154723.091000", "154723.093000", "154723.096000", "154723.098000", "154723.101000", "154723.103000", "154723.106000", "154723.108000", "154723.111000", "154723.113000", "154723.116000", "154723.118000", "154723.121000", "154723.123000", "154723.126000", "154723.129000", "154723.131000", "154723.134000", "154723.136000", "154723.139000", "154723.141000", "154723.144000", "154723.146000", "154723.149000", "154803.090000", "154803.093000", "154803.096000", "154803.098000", "154803.101000", "154803.103000", "154803.106000", "154803.108000", "154803.111000", "154803.114000", "154803.116000", "154803.119000", "154803.121000", "154803.124000", "154803.126000", "154803.129000", "154803.132000", "154803.134000", "154803.137000", "154803.139000", "154803.142000", "154803.144000", "154803.147000", "154803.149000", "154803.152000", "154803.154000", "154803.157000", "154843.077000", "154843.079000", "154843.082000", "154843.084000", "154843.087000", "154843.089000", "154843.092000", "154843.095000", "154843.097000", "154843.100000", "154843.103000", "154843.105000", "154843.108000", "154843.110000", "154843.113000", "154843.115000", "154843.118000", "154843.120000", "154843.123000", "154843.125000", "154843.128000", "154843.130000", "154843.133000", "154843.135000", "154843.138000", "154843.140000", "154843.143000", "154923.073000", "154923.078000", "154923.080000", "154923.083000", "154923.086000", "154923.089000", "154923.091000", "154923.094000", "154923.097000", "154923.099000", "154923.102000", "154923.104000", "154923.107000", "154923.110000", "154923.112000", "154923.115000", "154923.117000", "154923.120000", "154923.122000", "154923.125000", "154923.127000", "154923.130000", "154923.132000", "154923.135000", "154923.137000", "154923.140000", "155003.075000", "155003.078000", "155003.080000", "155003.083000", "155003.085000", "155003.088000", "155003.090000", "155003.093000", "155003.096000", "155003.098000", "155003.100000", "155003.103000", "155003.106000", "155003.108000", "155003.111000", "155003.113000", "155003.116000", "155003.118000", "155003.121000", "155003.123000", "155003.126000", "155003.129000", "155003.131000", "155003.133000", "155003.136000", "155003.139000", "155003.141000", "155043.089000", "155043.092000", "155043.094000", "155043.097000", "155043.099000", "155043.102000", "155043.104000", "155043.107000", "155043.109000", "155043.112000", "155043.115000", "155043.117000", "155043.120000", "155043.122000", "155043.125000", "155043.127000", "155043.130000", "155043.132000", "155043.135000", "155043.137000", "155043.140000", "155043.142000", "155043.145000", "155043.147000", "155043.150000", "155043.152000", "155043.155000", "155123.086000", "155123.089000", "155123.092000", "155123.094000", "155123.097000", "155123.099000", "155123.102000", "155123.104000", "155123.107000", "155123.110000", "155123.112000", "155123.114000", "155123.117000", "155123.120000", "155123.122000", "155123.125000", "155123.127000", "155123.130000", "155123.132000", "155123.135000", "155123.137000", "155123.140000", "155123.142000", "155123.145000", "155123.148000", "155123.150000", "155123.153000", "155143.376000", "155143.379000", "155143.381000", "155143.384000", "155143.386000", "155143.389000", "155143.391000", "155143.394000", "155143.397000", "155143.399000", "155143.402000", "155143.404000", "155143.407000", "155223.099000", "155223.102000", "155223.105000", "155223.107000", "155223.110000", "155223.112000", "155223.115000", "155223.117000", "155223.120000", "155223.123000", "155223.125000", "155223.128000", "155223.130000", "155223.133000", "155223.135000", "155223.138000", "155223.140000", "155223.143000", "155223.145000", "155223.148000", "155223.151000", "155223.153000", "155223.156000", "155223.158000", "155223.161000", "155223.163000", "155223.166000", "155302.287000", "155302.289000", "155302.301000", "155302.303000", "155302.306000", "155302.308000", "155302.311000", "155302.313000", "155302.316000", "155302.318000", "155302.321000", "155302.323000", "155302.326000", "155302.328000", "155302.331000", "155302.334000", "155302.336000", "155302.338000", "155302.341000", "155302.344000", "155302.346000", "155302.349000", "155302.351000", "155302.354000", "155302.356000", "155302.359000", "155302.362000"],
