{
  "AcquisitionMatrixPE": 104,
  "AcquisitionNumber": 1,
  "AcquisitionTime": "17:57:34.842500",
  "BandwidthPerPixelPhaseEncode": 17.17,
  "BaseResolution": 104,
  "BodyPartExamined": "BRAIN",
  "CoilCombinationMethod": "Sum of Squares",
  "ConsistencyInfo": "N4_VE11C_LATEST_20160120",
  "ConversionSoftware": "dcm2niix",
  "ConversionSoftwareVersion": "v1.0.20211006",
  "DerivedVendorReportedEchoSpacing": 0.000560011,
  "DeviceSerialNumber": "167006",
  "DwellTime": 2.1e-06,
  "EchoTime": 0.037,
  "EchoTime1": 0.037,
  "EchoTime2": 0.001,
  "EchoTrainLength": 104,
  "EffectiveEchoSpacing": 0.000560011,
  "FlipAngle": 52,
  "HeudiconvVersion": "0.10.0",
  "ImageComments": "Unaliased MB4/PE3/LB",
  "ImageOrientationPatientDICOM": [0.996236, 0.0762172, 0.041289, -0.0569193, 0.934437, -0.351549],
  "ImageOrientationText": "Tra>Cor(-20.4)>Sag(3.7)",
  "ImageType": [
    "ORIGINAL",
    "PRIMARY",
    "P",
    "MB",
    "ND",
    "MOSAIC",
    "PHASE"
],
  "ImagingFrequency": 123.259,
  "InPlanePhaseEncodingDirectionDICOM": "COL",
  "InstitutionAddress": "Chemin Queen-Mary 4565,Montreal,District,CA,H3W 1W5",
  "InstitutionName": "IUGM",
  "InstitutionalDepartmentName": "Department",
  "MRAcquisitionType": "2D",
  "MagneticFieldStrength": 3,
  "Manufacturer": "Siemens",
  "ManufacturersModelName": "Prisma_fit",
  "MatrixCoilMode": "SENSE",
  "Modality": "MR",
  "MultibandAccelerationFactor": 4,
  "PartialFourier": 1,
  "PatientPosition": "HFS",
  "PercentPhaseFOV": 100,
  "PercentSampling": 100,
  "PhaseEncodingDirection": "j",
  "PhaseEncodingSteps": 104,
  "PhaseResolution": 1,
  "PixelBandwidth": 2290,
  "ProcedureStepDescription": "games^mario",
  "ProtocolName": "func_task-mario_run-03",
  "PulseSequenceDetails": "%CustomerSeq%\\cmrr_mbep2d_bold",
  "ReceiveCoilActiveElements": "HC1-7;NC1,2",
  "ReceiveCoilName": "HeadNeck_64",
  "ReconMatrixPE": 104,
  "RepetitionTime": 1.49,
  "SAR": 0.0564083,
  "ScanOptions": "FS",
  "ScanningSequence": "EP",
  "SequenceName": "epfid2d1_104",
  "SequenceVariant": "SK\\SS",
  "SeriesDescription": "func_task-mario_run-03",
  "SeriesNumber": 17,
  "ShimSetting": [632, -7190, -8837, 620, 70, 0, -48, -31],
  "SliceThickness": 2,
  "SliceTiming": [0, 0.7825, 0.0975, 0.8825, 0.195, 0.98, 0.2925, 1.0775, 0.3925, 1.175, 0.49, 1.2725, 0.5875, 1.37, 0.685, 0, 0.7825, 0.0975, 0.8825, 0.195, 0.98, 0.2925, 1.0775, 0.3925, 1.175, 0.49, 1.2725, 0.5875, 1.37, 0.685, 0, 0.7825, 0.0975, 0.8825, 0.195, 0.98, 0.2925, 1.0775, 0.3925, 1.175, 0.49, 1.2725, 0.5875, 1.37, 0.685, 0, 0.7825, 0.0975, 0.8825, 0.195, 0.98, 0.2925, 1.0775, 0.3925, 1.175, 0.49, 1.2725, 0.5875, 1.37, 0.685],
  "SoftwareVersions": "syngo MR E11",
  "SpacingBetweenSlices": 2,
  "StationName": "MRC35049",
  "TaskName": "mario",
  "TotalReadoutTime": 0.0576811,
  "TxRefAmp": 286.126,
  "WipMemBlock": "3c806203-d8b1-432b-ba74-1a852b728b2b||Sequence: R016 ve11c/master r/e634e98; Dec 19 2017 11:00:25 by eja",
  "dcmmeta_affine": [
    [-1.9924719333648682, -0.11383864283561707, 0.130752295255661, 109.00677490234375],
    [-0.15243443846702576, 1.8688747882843018, -0.6957520842552185, -52.49039077758789],
    [0.08257809281349182, 0.7030988335609436, 1.8705167770385742, -70.44981384277344],
    [0.0, 0.0, 0.0, 1.0]
],
  "dcmmeta_reorient_transform": [
    [0.0, -1.0, 0.0, 103.0],
    [1.0, 0.0, 0.0, 0.0],
    [0.0, 0.0, 1.0, 0.0],
    [0.0, 0.0, 0.0, 1.0]
],
  "dcmmeta_shape": [104, 104, 60, 443],
  "dcmmeta_slice_dim": 2,
  "dcmmeta_version": 0.6,
  "global": {
    "const": {
      "AcquisitionMatrix": [104, 0, 0, 104],
      "AngioFlag": "N",
      "BitsAllocated": 16,
      "BitsStored": 16,
      "BodyPartExamined": "BRAIN",
      "Columns": 832,
      "EchoNumbers": 1,
      "EchoTime": 37.0,
      "EchoTrainLength": 104,
      "FlipAngle": 52.0,
      "HighBit": 15,
      "ImageOrientationPatient": [0.99623599143402, 0.07621721690233, 0.0412890447835, -0.0569193206752, 0.93443736875926, -0.3515494201391],
      "ImagePositionPatient": [-781.10392745519, -875.76024515326, 227.83891615511],
      "ImageType": [
        "ORIGINAL",
        "PRIMARY",
        "P",
        "MB",
        "ND",
        "MOSAIC"
],
      "ImagedNucleus": "1H",
      "ImagingFrequency": 123.258871,
      "InPlanePhaseEncodingDirection": "COL",
      "LargestImagePixelValue": 4095,
      "MRAcquisitionType": "2D",
      "MagneticFieldStrength": 3.0,
      "Manufacturer": "SIEMENS",
      "ManufacturerModelName": "Prisma_fit",
      "Modality": "MR",
      "NumberOfAverages": 1.0,
      "NumberOfPhaseEncodingSteps": 104,
      "PercentPhaseFieldOfView": 100.0,
      "PercentSampling": 100.0,
      "PerformedProcedureStepStartTime": "171544.086000",
      "PhotometricInterpretation": "MONOCHROME2",
      "PixelBandwidth": 2290.0,
      "PixelRepresentation": 0,
      "PixelSpacing": [2.0, 2.0],
      "ProtocolName": "func_task-mario_run-03",
      "RepetitionTime": 1490.0,
      "RescaleIntercept": -4096.0,
      "RescaleSlope": 2.0,
      "RescaleType": "US",
      "Rows": 832,
      "SAR": 0.05640829210752,
      "SamplesPerPixel": 1,
      "ScanOptions": "FS",
      "ScanningSequence": "EP",
      "SequenceName": "epfid2d1_104",
      "SequenceVariant": [
        "SK",
        "SS"
],
      "SeriesDescription": "func_task-mario_run-03",
      "SeriesNumber": 17,
      "SeriesTime": "175900.398000",
      "SliceLocation": -40.502189761473,
      "SliceThickness": 2.0,
      "SmallestImagePixelValue": 0,
      "SoftwareVersions": "syngo MR E11",
      "SpacingBetweenSlices": 2.0000000408128,
      "SpecificCharacterSet": "ISO_IR 100",
      "StudyID": "1",
      "StudyTime": "171544.010000",
      "TransmitCoilName": "Body",
      "VariableFlipAngleFlag": "N",
      "WindowCenterWidthExplanation": "Algo1",
      "dBdt": 0.0},
    "slices": {}
  },
  "time": {
    "samples": {
      "AcquisitionNumber": [1, 2, 3, 4, 5, 6, 7, 8, 9, 10, 11, 12, 13, 14, 15, 16, 17, 18, 19, 20, 21, 22, 23, 24, 25, 26, 27, 28, 29, 30, 31, 32, 33, 34, 35, 36, 37, 38, 39, 40, 41, 42, 43, 44, 45, 46, 47, 48, 49, 50, 51, 52, 53, 54, 55, 56, 57, 58, 59, 60, 61, 62, 63, 64, 65, 66, 67, 68, 69, 70, 71, 72, 73, 74, 75, 76, 77, 78, 79, 80, 81, 82, 83, 84, 85, 86, 87, 88, 89, 90, 91, 92, 93, 94, 95, 96, 97, 98, 99, 100, 101, 102, 103, 104, 105, 106, 107, 108, 109, 110, 111, 112, 113, 114, 115, 116, 117, 118, 119, 120, 121, 122, 123, 124, 125, 126, 127, 128, 129, 130, 131, 132, 133, 134, 135, 136, 137, 138, 139, 140, 141, 142, 143, 144, 145, 146, 147, 148, 149, 150, 151, 152, 153, 154, 155, 156, 157, 158, 159, 160, 161, 162, 163, 164, 165, 166, 167, 168, 169, 170, 171, 172, 173, 174, 175, 176, 177, 178, 179, 180, 181, 182, 183, 184, 185, 186, 187, 188, 189, 190, 191, 192, 193, 194, 195, 196, 197, 198, 199, 200, 201, 202, 203, 204, 205, 206, 207, 208, 209, 210, 211, 212, 213, 214, 215, 216, 217, 218, 219, 220, 221, 222, 223, 224, 225, 226, 227, 228, 229, 230, 231, 232, 233, 234, 235, 236, 237, 238, 239, 240, 241, 242, 243, 244, 245, 246, 247, 248, 249, 250, 251, 252, 253, 254, 255, 256, 257, 258, 259, 260, 261, 262, 263, 264, 265, 266, 267, 268, 269, 270, 271, 272, 273, 274, 275, 276, 277, 278, 279, 280, 281, 282, 283, 284, 285, 286, 287, 288, 289, 290, 291, 292, 293, 294, 295, 296, 297, 298, 299, 300, 301, 302, 303, 304, 305, 306, 307, 308, 309, 310, 311, 312, 313, 314, 315, 316, 317, 318, 319, 320, 321, 322, 323, 324, 325, 326, 327, 328, 329, 330, 331, 332, 333, 334, 335, 336, 337, 338, 339, 340, 341, 342, 343, 344, 345, 346, 347, 348, 349, 350, 351, 352, 353, 354, 355, 356, 357, 358, 359, 360, 361, 362, 363, 364, 365, 366, 367, 368, 369, 370, 371, 372, 373, 374, 375, 376, 377, 378, 379, 380, 381, 382, 383, 384, 385, 386, 387, 388, 389, 390, 391, 392, 393, 394, 395, 396, 397, 398, 399, 400, 401, 402, 403, 404, 405, 406, 407, 408, 409, 410, 411, 412, 413, 414, 415, 416, 417, 418, 419, 420, 421, 422, 423, 424, 425, 426, 427, 428, 429, 430, 431, 432, 433, 434, 435, 436, 437, 438, 439, 440, 441, 442, 443],
      "AcquisitionTime": ["175734.842500", "175736.332500", "175737.822500", "175739.312500", "175740.802500", "175742.292500", "175743.782500", "175745.272500", "175746.762500", "175748.252500", "175749.742500", "175751.232500", "175752.722500", "175754.212500", "175755.702500", "175757.192500", "175758.682500", "175800.172500", "175801.662500", "175803.152500", "175804.642500", "175806.132500", "175807.622500", "175809.112500", "175810.602500", "175812.092500", "175813.582500", "175815.072500", "175816.562500", "175818.052500", "175819.542500", "175821.032500", "175822.522500", "175824.012500", "175825.502500", "175826.992500", "175828.482500", "175829.972500", "175831.462500", "175832.952500", "175834.442500", "175835.932500", "175837.422500", "175838.912500", "175840.402500", "175841.892500", "175843.382500", "175844.872500", "175846.362500", "175847.852500", "175849.342500", "175850.832500", "175852.322500", "175853.812500", "175855.302500", "175856.792500", "175858.282500", "175859.772500", "175901.262500", "175902.752500", "175904.242500", "175905.732500", "175907.222500", "175908.712500", "175910.202500", "175911.692500", "175913.182500", "175914.672500", "175916.162500", "175917.652500", "175919.142500", "175920.632500", "175922.122500", "175923.612500", "175925.102500", "175926.592500", "175928.082500", "175929.572500", "175931.062500", "175932.552500", "175934.042500", "175935.532500", "175937.022500", "175938.512500", "175940.002500", "175941.492500", "175942.982500", "175944.472500", "175945.962500", "175947.452500", "175948.942500", "175950.432500", "175951.922500", "175953.412500", "175954.902500", "175956.392500", "175957.882500", "175959.372500", "180000.862500", "180002.352500", "180003.842500", "180005.332500", "180006.822500", "180008.312500", "180009.802500", "180011.292500", "180012.782500", "180014.272500", "180015.762500", "180017.252500", "180018.742500", "180020.232500", "180021.722500", "180023.212500", "180024.702500", "180026.192500", "180027.682500", "180029.172500", "180030.662500", "180032.152500", "180033.642500", "180035.132500", "180036.622500", "180038.112500", "180039.602500", "180041.092500", "180042.582500", "180044.072500", "180045.562500", "180047.052500", "180048.542500", "180050.032500", "180051.522500", "180053.012500", "180054.502500", "180055.992500", "180057.482500", "180058.972500", "180100.462500", "180101.952500", "180103.442500", "180104.932500", "180106.422500", "180107.912500", "180109.402500", "180110.892500", "180112.382500", "180113.872500", "180115.362500", "180116.852500", "180118.342500", "180119.832500", "180121.322500", "180122.812500", "180124.302500", "180125.792500", "180127.282500", "180128.772500", "180130.262500", "180131.752500", "180133.242500", "180134.732500", "180136.222500", "180137.712500", "180139.202500", "180140.692500", "180142.182500", "180143.672500", "180145.162500", "180146.652500", "180148.142500", "180149.632500", "180151.122500", "180152.612500", "180154.102500", "180155.592500", "180157.082500", "180158.572500", "180200.062500", "180201.552500", "180203.042500", "180204.532500", "180206.022500", "180207.512500", "180209.002500", "180210.492500", "180211.982500", "180213.472500", "180214.962500", "180216.452500", "180217.942500", "180219.432500", "180220.922500", "180222.412500", "180223.902500", "180225.392500", "180226.882500", "180228.372500", "180229.862500", "180231.352500", "180232.842500", "180234.332500", "180235.822500", "180237.312500", "180238.802500", "180240.292500", "180241.782500", "180243.272500", "180244.762500", "180246.252500", "180247.742500", "180249.232500", "180250.722500", "180252.212500", "180253.702500", "180255.192500", "180256.682500", "180258.172500", "180259.662500", "180301.152500", "180302.642500", "180304.132500", "180305.622500", "180307.112500", "180308.602500", "180310.092500", "180311.582500", "180313.072500", "180314.562500", "180316.052500", "180317.542500", "180319.032500", "180320.522500", "180322.012500", "180323.502500", "180324.992500", "180326.482500", "180327.972500", "180329.462500", "180330.952500", "180332.442500", "180333.932500", "180335.422500", "180336.912500", "180338.402500", "180339.892500", "180341.382500", "180342.872500", "180344.362500", "180345.852500", "180347.342500", "180348.832500", "180350.322500", "180351.812500", "180353.302500", "180354.792500", "180356.282500", "180357.772500", "180359.262500", "180400.752500", "180402.242500", "180403.732500", "180405.222500", "180406.712500", "180408.202500", "180409.692500", "180411.182500", "180412.672500", "180414.162500", "180415.652500", "180417.142500", "180418.632500", "180420.122500", "180421.612500", "180423.102500", "180424.592500", "180426.082500", "180427.572500", "180429.062500", "180430.552500", "180432.042500", "180433.532500", "180435.022500", "180436.512500", "180438.002500", "180439.492500", "180440.982500", "180442.472500", "180443.962500", "180445.452500", "180446.942500", "180448.432500", "180449.922500", "180451.412500", "180452.902500", "180454.392500", "180455.882500", "180457.372500", "180458.862500", "180500.352500", "180501.842500", "180503.332500", "180504.822500", "180506.312500", "180507.802500", "180509.292500", "180510.782500", "180512.272500", "180513.762500", "180515.252500", "180516.742500", "180518.232500", "180519.722500", "180521.212500", "180522.702500", "180524.192500", "180525.682500", "180527.172500", "180528.662500", "180530.152500", "180531.642500", "180533.132500", "180534.622500", "180536.112500", "180537.602500", "180539.092500", "180540.582500", "180542.072500", "180543.562500", "180545.052500", "180546.542500", "180548.032500", "180549.522500", "180551.012500", "180552.502500", "180553.992500", "180555.482500", "180556.972500", "180558.462500", "180559.952500", "180601.442500", "180602.932500", "180604.422500", "180605.912500", "180607.402500", "180608.892500", "180610.382500", "180611.872500", "180613.362500", "180614.852500", "180616.342500", "180617.832500", "180619.322500", "180620.812500", "180622.302500", "180623.792500", "180625.282500", "180626.772500", "180628.262500", "180629.752500", "180631.242500", "180632.732500", "180634.222500", "180635.712500", "180637.202500", "180638.692500", "180640.182500", "180641.672500", "180643.162500", "180644.652500", "180646.142500", "180647.632500", "180649.122500", "180650.612500", "180652.102500", "180653.592500", "180655.082500", "180656.572500", "180658.062500", "180659.552500", "180701.042500", "180702.532500", "180704.022500", "180705.512500", "180707.002500", "180708.492500", "180709.982500", "180711.472500", "180712.962500", "180714.452500", "180715.942500", "180717.432500", "180718.922500", "180720.412500", "180721.902500", "180723.392500", "180724.882500", "180726.372500", "180727.862500", "180729.352500", "180730.842500", "180732.332500", "180733.822500", "180735.312500", "180736.802500", "180738.292500", "180739.782500", "180741.272500", "180742.762500", "180744.252500", "180745.742500", "180747.232500", "180748.722500", "180750.212500", "180751.702500", "180753.192500", "180754.682500", "180756.172500", "180757.662500", "180759.152500", "180800.642500", "180802.132500", "180803.622500", "180805.112500", "180806.602500", "180808.092500", "180809.582500", "180811.072500", "180812.562500", "180814.052500", "180815.542500", "180817.032500", "180818.522500", "180820.012500", "180821.502500", "180822.992500", "180824.482500", "180825.972500", "180827.462500", "180828.952500", "180830.442500", "180831.932500", "180833.422500"],
      "ContentTime": ["175900.400000", "175900.403000", "175900.406000", "175900.408000", "175900.410000", "175900.413000", "175900.415000", "175900.418000", "175900.420000", "175900.423000", "175900.425000", "175900.428000", "175900.430000", "175900.433000", "175900.435000", "175900.438000", "175900.440000", "175900.443000", "175900.445000", "175900.448000", "175900.450000", "175900.463000", "175900.465000", "175900.468000", "175900.470000", "175900.473000", "175900.475000", "175900.477000", "175900.480000", "175900.482000", "175900.485000", "175900.487000", "175920.340000", "175920.343000", "175920.346000", "175920.348000", "175920.350000", "175920.353000", "175920.356000", "175920.358000", "175920.360000", "175920.363000", "175920.366000", "175920.368000", "175920.370000", "175920.373000", "175920.375000", "175920.378000", "175920.380000", "175920.383000", "175920.385000", "175920.388000", "175940.322000", "175940.325000", "175940.327000", "175940.330000", "175940.332000", "175940.335000", "175940.337000", "175940.340000", "175940.342000", "175940.344000", "175940.347000", "175940.349000", "175940.352000", "175940.354000", "175940.357000", "175940.359000", "175940.362000", "175940.364000", "175940.367000", "175940.369000", "180000.339000", "180000.342000", "180000.345000", "180000.347000", "180000.359000", "180000.361000", "180000.364000", "180000.366000", "180000.369000", "180000.371000", "180000.374000", "180000.376000", "180000.379000", "180000.381000", "180000.384000", "180000.386000", "180000.389000", "180000.392000", "180000.394000", "180000.396000", "180040.382000", "180040.384000", "180040.387000", "180040.389000", "180040.392000", "180040.394000", "180040.397000", "180040.399000", "180040.402000", "180040.405000", "180040.407000", "180040.409000", "180040.412000", "180040.415000", "180040.417000", "180040.420000", "180040.422000", "180040.425000", "180040.427000", "180040.430000", "180040.432000", "180040.435000", "180040.437000", "180040.440000", "180040.442000", "180040.445000", "180040.447000", "180040.450000", "180040.452000", "180040.455000", "180040.457000", "180040.460000", "180120.349000", "180120.351000", "180120.354000", "180120.357000", "180120.359000", "180120.362000", "180120.364000", "180120.367000", "180120.369000", "180120.372000", "180120.374000", "180120.377000", "180120.380000", "180120.383000", "180120.387000", "180120.390000", "180120.393000", "180120.396000", "180120.399000", "180120.403000", "180120.406000", "180120.409000", "180120.412000", "180120.415000", "180120.417000", "180120.419000", "180200.356000", "180200.359000", "180200.362000", "180200.364000", "180200.367000", "180200.369000", "180200.372000", "180200.374000", "180200.377000", "180200.379000", "180200.382000", "180200.384000", "180200.387000", "180200.389000", "180200.392000", "180200.394000", "180200.397000", "180200.399000", "180200.402000", "180200.404000", "180200.407000", "180200.409000", "180200.412000", "180200.414000", "180200.417000", "180200.419000", "180200.422000", "180240.365000", "180240.368000", "180240.370000", "180240.372000", "180240.375000", "180240.377000", "180240.380000", "180240.382000", "180240.385000", "180240.387000", "180240.390000", "180240.392000", "180240.394000", "180240.397000", "180240.399000", "180240.402000", "180240.405000", "180240.407000", "180240.409000", "180240.412000", "180240.415000", "180240.417000", "180240.419000", "180240.422000", "180240.425000", "180240.427000", "180240.429000", "180320.372000", "180320.375000", "180320.378000", "180320.380000", "180320.383000", "180320.385000", "180320.388000", "180320.390000", "180320.393000", "180320.395000", "180320.398000", "180320.400000", "180320.403000", "180320.405000", "180320.408000", "180320.410000", "180320.413000", "180320.415000", "180320.418000", "180320.420000", "180320.423000", "180320.425000", "180320.428000", "180320.431000", "180320.433000", "180320.435000", "180320.438000", "180400.363000", "180400.366000", "180400.368000", "180400.371000", "180400.373000", "180400.376000", "180400.378000", "180400.381000", "180400.383000", "180400.386000", "180400.388000", "180400.391000", "180400.393000", "180400.396000", "180400.398000", "180400.401000", "180400.403000", "180400.406000", "180400.408000", "180400.411000", "180400.414000", "180400.416000", "180400.419000", "180400.421000", "180400.424000", "180400.426000", "180400.429000", "180440.355000", "180440.357000", "180440.360000", "180440.363000", "180440.365000", "180440.368000", "180440.370000", "180440.373000", "180440.375000", "180440.378000", "180440.380000", "180440.383000", "180440.385000", "180440.388000", "180440.390000", "180440.392000", "180440.395000", "180440.397000", "180440.400000", "180440.402000", "180440.405000", "180440.407000", "180440.410000", "180440.412000", "180440.415000", "180440.417000", "180440.419000", "180520.383000", "180520.386000", "180520.388000", "180520.391000", "180520.393000", "180520.396000", "180520.398000", "180520.401000", "180520.403000", "180520.406000", "180520.408000", "180520.411000", "180520.413000", "180520.416000", "180520.419000", "180520.421000", "180520.423000", "180520.426000", "180520.428000", "180520.431000", "180520.433000", "180520.436000", "180520.439000", "180520.441000", "180520.444000", "180520.446000", "180600.357000", "180600.360000", "180600.362000", "180600.365000", "180600.368000", "180600.370000", "180600.373000", "180600.376000", "180600.378000", "180600.381000", "180600.383000", "180600.386000", "180600.389000", "180600.391000", "180600.394000", "180600.396000", "180600.399000", "180600.401000", "180600.404000", "180600.406000", "180600.409000", "180600.411000", "180600.414000", "180600.416000", "180600.419000", "180600.421000", "180600.424000", "180640.371000", "180640.374000", "180640.377000", "180640.379000", "180640.382000", "180640.384000", "180640.387000", "180640.389000", "180640.392000", "180640.394000", "180640.397000", "180640.399000", "180640.402000", "180640.404000", "180640.407000", "180640.409000", "180640.412000", "180640.414000", "180640.417000", "180640.419000", "180640.422000", "180640.424000", "180640.427000", "180640.429000", "180640.433000", "180640.435000", "180640.438000", "180720.363000", "180720.366000", "180720.368000", "180720.371000", "180720.373000", "180720.376000", "180720.378000", "180720.381000", "180720.383000", "180720.386000", "180720.388000", "180720.391000", "180720.393000", "180720.396000", "180720.398000", "180720.401000", "180720.404000", "180720.406000", "180720.409000", "180720.411000", "180720.414000", "180720.417000", "180720.419000", "180720.421000", "180720.424000", "180720.427000", "180720.429000", "180800.354000", "180800.357000", "180800.359000", "180800.362000", "180800.364000", "180800.367000", "180800.369000", "180800.372000", "180800.374000", "180800.377000", "180800.379000", "180800.382000", "180800.384000", "180800.387000", "180800.389000", "180800.392000", "180800.394000", "180800.397000", "180800.399000", "180800.402000", "180800.404000", "180800.407000", "180800.409000", "180800.412000", "180800.414000", "180800.417000", "180800.419000", "180835.674000", "180835.677000", "180835.679000", "180835.687000", "180835.689000", "180835.692000", "180835.694000", "180835.697000", "180835.699000", "180835.702000", "180835.704000", "180835.707000", "180835.710000", "180835.712000", "180835.715000", "180835.717000", "180835.720000", "180835.722000", "180835.725000", "180835.727000", "180835.730000", "180835.732000", "180835.734000", "180835.737000"],
