{
  "AcquisitionMatrixPE": 104,
  "AcquisitionNumber": 1,
  "AcquisitionTime": "18:10:13.225000",
  "BandwidthPerPixelPhaseEncode": 17.17,
  "BaseResolution": 104,
  "BodyPartExamined": "BRAIN",
  "CoilCombinationMethod": "Sum of Squares",
  "ConsistencyInfo": "N4_VE11C_LATEST_20160120",
  "ConversionSoftware": "dcm2niix",
  "ConversionSoftwareVersion": "v1.0.20211006",
  "DerivedVendorReportedEchoSpacing": 0.000560011,
  "DeviceSerialNumber": "167006",
  "DwellTime": 2.1e-06,
  "EchoTime": 0.037,
  "EchoTime1": 0.037,
  "EchoTime2": 0.001,
  "EchoTrainLength": 104,
  "EffectiveEchoSpacing": 0.000560011,
  "FlipAngle": 52,
  "HeudiconvVersion": "0.10.0",
  "ImageComments": "Unaliased MB4/PE3/LB",
  "ImageOrientationPatientDICOM": [0.996236, 0.0762172, 0.041289, -0.0569193, 0.934437, -0.351549],
  "ImageOrientationText": "Tra>Cor(-20.4)>Sag(3.7)",
  "ImageType": [
    "ORIGINAL",
    "PRIMARY",
    "P",
    "MB",
    "ND",
    "MOSAIC",
    "PHASE"
],
  "ImagingFrequency": 123.259,
  "InPlanePhaseEncodingDirectionDICOM": "COL",
  "InstitutionAddress": "Chemin Queen-Mary 4565,Montreal,District,CA,H3W 1W5",
  "InstitutionName": "IUGM",
  "InstitutionalDepartmentName": "Department",
  "MRAcquisitionType": "2D",
  "MagneticFieldStrength": 3,
  "Manufacturer": "Siemens",
  "ManufacturersModelName": "Prisma_fit",
  "MatrixCoilMode": "SENSE",
  "Modality": "MR",
  "MultibandAccelerationFactor": 4,
  "PartialFourier": 1,
  "PatientPosition": "HFS",
  "PercentPhaseFOV": 100,
  "PercentSampling": 100,
  "PhaseEncodingDirection": "j",
  "PhaseEncodingSteps": 104,
  "PhaseResolution": 1,
  "PixelBandwidth": 2290,
  "ProcedureStepDescription": "games^mario",
  "ProtocolName": "func_task-mario_run-04",
  "PulseSequenceDetails": "%CustomerSeq%\\cmrr_mbep2d_bold",
  "ReceiveCoilActiveElements": "HC1-7;NC1,2",
  "ReceiveCoilName": "HeadNeck_64",
  "ReconMatrixPE": 104,
  "RepetitionTime": 1.49,
  "SAR": 0.0564083,
  "ScanOptions": "FS",
  "ScanningSequence": "EP",
  "SequenceName": "epfid2d1_104",
  "SequenceVariant": "SK\\SS",
  "SeriesDescription": "func_task-mario_run-04",
  "SeriesNumber": 20,
  "ShimSetting": [632, -7190, -8837, 620, 70, 0, -48, -31],
  "SliceThickness": 2,
  "SliceTiming": [0, 0.7825, 0.0975, 0.8825, 0.195, 0.98, 0.2925, 1.0775, 0.3925, 1.175, 0.49, 1.2725, 0.5875, 1.3725, 0.685, 0, 0.7825, 0.0975, 0.8825, 0.195, 0.98, 0.2925, 1.0775, 0.3925, 1.175, 0.49, 1.2725, 0.5875, 1.3725, 0.685, 0, 0.7825, 0.0975, 0.8825, 0.195, 0.98, 0.2925, 1.0775, 0.3925, 1.175, 0.49, 1.2725, 0.5875, 1.3725, 0.685, 0, 0.7825, 0.0975, 0.8825, 0.195, 0.98, 0.2925, 1.0775, 0.3925, 1.175, 0.49, 1.2725, 0.5875, 1.3725, 0.685],
  "SoftwareVersions": "syngo MR E11",
  "SpacingBetweenSlices": 2,
  "StationName": "MRC35049",
  "TaskName": "mario",
  "TotalReadoutTime": 0.0576811,
  "TxRefAmp": 286.126,
  "WipMemBlock": "46b79fc1-9cdb-4ba3-8dab-9f8f92b917ab||Sequence: R016 ve11c/master r/e634e98; Dec 19 2017 11:00:25 by eja",
  "dcmmeta_affine": [
    [-1.9924719333648682, -0.11383864283561707, 0.130752295255661, 109.00677490234375],
    [-0.15243443846702576, 1.8688747882843018, -0.6957520842552185, -52.49039077758789],
    [0.08257809281349182, 0.7030988335609436, 1.8705167770385742, -70.44981384277344],
    [0.0, 0.0, 0.0, 1.0]
],
  "dcmmeta_reorient_transform": [
    [0.0, -1.0, 0.0, 103.0],
    [1.0, 0.0, 0.0, 0.0],
    [0.0, 0.0, 1.0, 0.0],
    [0.0, 0.0, 0.0, 1.0]
],
  "dcmmeta_shape": [104, 104, 60, 453],
  "dcmmeta_slice_dim": 2,
  "dcmmeta_version": 0.6,
  "global": {
    "const": {
      "AcquisitionMatrix": [104, 0, 0, 104],
      "AngioFlag": "N",
      "BitsAllocated": 16,
      "BitsStored": 16,
      "BodyPartExamined": "BRAIN",
      "Columns": 832,
      "EchoNumbers": 1,
      "EchoTime": 37.0,
      "EchoTrainLength": 104,
      "FlipAngle": 52.0,
      "HighBit": 15,
      "ImageOrientationPatient": [0.99623599143402, 0.07621721690233, 0.0412890447835, -0.0569193206752, 0.93443736875926, -0.3515494201391],
      "ImagePositionPatient": [-781.10392745519, -875.76024515326, 227.83891615511],
      "ImageType": [
        "ORIGINAL",
        "PRIMARY",
        "P",
        "MB",
        "ND",
        "MOSAIC"
],
      "ImagedNucleus": "1H",
      "ImagingFrequency": 123.258874,
      "InPlanePhaseEncodingDirection": "COL",
      "LargestImagePixelValue": 4095,
      "MRAcquisitionType": "2D",
      "MagneticFieldStrength": 3.0,
      "Manufacturer": "SIEMENS",
      "ManufacturerModelName": "Prisma_fit",
      "Modality": "MR",
      "NumberOfAverages": 1.0,
      "NumberOfPhaseEncodingSteps": 104,
      "PercentPhaseFieldOfView": 100.0,
      "PercentSampling": 100.0,
      "PerformedProcedureStepStartTime": "171544.086000",
      "PhotometricInterpretation": "MONOCHROME2",
      "PixelBandwidth": 2290.0,
      "PixelRepresentation": 0,
      "PixelSpacing": [2.0, 2.0],
      "ProtocolName": "func_task-mario_run-04",
      "RepetitionTime": 1490.0,
      "RescaleIntercept": -4096.0,
      "RescaleSlope": 2.0,
      "RescaleType": "US",
      "Rows": 832,
      "SAR": 0.05640829210752,
      "SamplesPerPixel": 1,
      "ScanOptions": "FS",
      "ScanningSequence": "EP",
      "SequenceName": "epfid2d1_104",
      "SequenceVariant": [
        "SK",
        "SS"
],
      "SeriesDescription": "func_task-mario_run-04",
      "SeriesNumber": 20,
      "SeriesTime": "181145.928000",
      "SliceLocation": -40.502189761473,
      "SliceThickness": 2.0,
      "SmallestImagePixelValue": 0,
      "SoftwareVersions": "syngo MR E11",
      "SpacingBetweenSlices": 2.0000000408128,
      "SpecificCharacterSet": "ISO_IR 100",
      "StudyID": "1",
      "StudyTime": "171544.010000",
      "TransmitCoilName": "Body",
      "VariableFlipAngleFlag": "N",
      "WindowCenterWidthExplanation": "Algo1",
      "dBdt": 0.0},
    "slices": {}
  },
  "time": {
    "samples": {
      "AcquisitionNumber": [1, 2, 3, 4, 5, 6, 7, 8, 9, 10, 11, 12, 13, 14, 15, 16, 17, 18, 19, 20, 21, 22, 23, 24, 25, 26, 27, 28, 29, 30, 31, 32, 33, 34, 35, 36, 37, 38, 39, 40, 41, 42, 43, 44, 45, 46, 47, 48, 49, 50, 51, 52, 53, 54, 55, 56, 57, 58, 59, 60, 61, 62, 63, 64, 65, 66, 67, 68, 69, 70, 71, 72, 73, 74, 75, 76, 77, 78, 79, 80, 81, 82, 83, 84, 85, 86, 87, 88, 89, 90, 91, 92, 93, 94, 95, 96, 97, 98, 99, 100, 101, 102, 103, 104, 105, 106, 107, 108, 109, 110, 111, 112, 113, 114, 115, 116, 117, 118, 119, 120, 121, 122, 123, 124, 125, 126, 127, 128, 129, 130, 131, 132, 133, 134, 135, 136, 137, 138, 139, 140, 141, 142, 143, 144, 145, 146, 147, 148, 149, 150, 151, 152, 153, 154, 155, 156, 157, 158, 159, 160, 161, 162, 163, 164, 165, 166, 167, 168, 169, 170, 171, 172, 173, 174, 175, 176, 177, 178, 179, 180, 181, 182, 183, 184, 185, 186, 187, 188, 189, 190, 191, 192, 193, 194, 195, 196, 197, 198, 199, 200, 201, 202, 203, 204, 205, 206, 207, 208, 209, 210, 211, 212, 213, 214, 215, 216, 217, 218, 219, 220, 221, 222, 223, 224, 225, 226, 227, 228, 229, 230, 231, 232, 233, 234, 235, 236, 237, 238, 239, 240, 241, 242, 243, 244, 245, 246, 247, 248, 249, 250, 251, 252, 253, 254, 255, 256, 257, 258, 259, 260, 261, 262, 263, 264, 265, 266, 267, 268, 269, 270, 271, 272, 273, 274, 275, 276, 277, 278, 279, 280, 281, 282, 283, 284, 285, 286, 287, 288, 289, 290, 291, 292, 293, 294, 295, 296, 297, 298, 299, 300, 301, 302, 303, 304, 305, 306, 307, 308, 309, 310, 311, 312, 313, 314, 315, 316, 317, 318, 319, 320, 321, 322, 323, 324, 325, 326, 327, 328, 329, 330, 331, 332, 333, 334, 335, 336, 337, 338, 339, 340, 341, 342, 343, 344, 345, 346, 347, 348, 349, 350, 351, 352, 353, 354, 355, 356, 357, 358, 359, 360, 361, 362, 363, 364, 365, 366, 367, 368, 369, 370, 371, 372, 373, 374, 375, 376, 377, 378, 379, 380, 381, 382, 383, 384, 385, 386, 387, 388, 389, 390, 391, 392, 393, 394, 395, 396, 397, 398, 399, 400, 401, 402, 403, 404, 405, 406, 407, 408, 409, 410, 411, 412, 413, 414, 415, 416, 417, 418, 419, 420, 421, 422, 423, 424, 425, 426, 427, 428, 429, 430, 431, 432, 433, 434, 435, 436, 437, 438, 439, 440, 441, 442, 443, 444, 445, 446, 447, 448, 449, 450, 451, 452, 453],
      "AcquisitionTime": ["181013.225000", "181014.715000", "181016.205000", "181017.695000", "181019.185000", "181020.675000", "181022.165000", "181023.655000", "181025.145000", "181026.635000", "181028.125000", "181029.615000", "181031.105000", "181032.595000", "181034.085000", "181035.575000", "181037.065000", "181038.555000", "181040.045000", "181041.535000", "181043.025000", "181044.515000", "181046.005000", "181047.495000", "181048.985000", "181050.475000", "181051.965000", "181053.455000", "181054.945000", "181056.435000", "181057.925000", "181059.415000", "181100.905000", "181102.395000", "181103.885000", "181105.375000", "181106.865000", "181108.355000", "181109.845000", "181111.335000", "181112.825000", "181114.315000", "181115.805000", "181117.295000", "181118.785000", "181120.275000", "181121.765000", "181123.255000", "181124.745000", "181126.235000", "181127.725000", "181129.215000", "181130.705000", "181132.195000", "181133.685000", "181135.175000", "181136.665000", "181138.155000", "181139.645000", "181141.135000", "181142.625000", "181144.115000", "181145.605000", "181147.095000", "181148.585000", "181150.075000", "181151.565000", "181153.055000", "181154.545000", "181156.035000", "181157.525000", "181159.015000", "181200.505000", "181201.995000", "181203.485000", "181204.975000", "181206.465000", "181207.955000", "181209.445000", "181210.935000", "181212.425000", "181213.915000", "181215.405000", "181216.895000", "181218.385000", "181219.875000", "181221.365000", "181222.855000", "181224.345000", "181225.835000", "181227.325000", "181228.815000", "181230.305000", "181231.795000", "181233.285000", "181234.775000", "181236.265000", "181237.755000", "181239.245000", "181240.735000", "181242.225000", "181243.715000", "181245.205000", "181246.695000", "181248.185000", "181249.675000", "181251.165000", "181252.655000", "181254.145000", "181255.635000", "181257.125000", "181258.615000", "181300.105000", "181301.595000", "181303.085000", "181304.575000", "181306.065000", "181307.555000", "181309.045000", "181310.535000", "181312.025000", "181313.515000", "181315.005000", "181316.495000", "181317.985000", "181319.475000", "181320.965000", "181322.455000", "181323.945000", "181325.435000", "181326.925000", "181328.415000", "181329.905000", "181331.395000", "181332.885000", "181334.375000", "181335.865000", "181337.355000", "181338.845000", "181340.335000", "181341.825000", "181343.315000", "181344.805000", "181346.295000", "181347.785000", "181349.275000", "181350.765000", "181352.255000", "181353.745000", "181355.235000", "181356.725000", "181358.215000", "181359.705000", "181401.195000", "181402.685000", "181404.175000", "181405.665000", "181407.155000", "181408.645000", "181410.135000", "181411.625000", "181413.115000", "181414.605000", "181416.095000", "181417.585000", "181419.075000", "181420.565000", "181422.055000", "181423.545000", "181425.035000", "181426.525000", "181428.015000", "181429.505000", "181430.995000", "181432.485000", "181433.975000", "181435.465000", "181436.955000", "181438.445000", "181439.935000", "181441.425000", "181442.915000", "181444.405000", "181445.895000", "181447.385000", "181448.875000", "181450.365000", "181451.855000", "181453.345000", "181454.835000", "181456.325000", "181457.815000", "181459.305000", "181500.795000", "181502.285000", "181503.775000", "181505.265000", "181506.755000", "181508.245000", "181509.735000", "181511.225000", "181512.715000", "181514.205000", "181515.695000", "181517.185000", "181518.675000", "181520.165000", "181521.655000", "181523.145000", "181524.635000", "181526.125000", "181527.615000", "181529.105000", "181530.595000", "181532.085000", "181533.575000", "181535.065000", "181536.555000", "181538.045000", "181539.535000", "181541.025000", "181542.515000", "181544.005000", "181545.495000", "181546.985000", "181548.475000", "181549.965000", "181551.455000", "181552.945000", "181554.435000", "181555.925000", "181557.415000", "181558.905000", "181600.395000", "181601.885000", "181603.375000", "181604.865000", "181606.355000", "181607.845000", "181609.335000", "181610.825000", "181612.315000", "181613.805000", "181615.295000", "181616.785000", "181618.275000", "181619.765000", "181621.255000", "181622.745000", "181624.235000", "181625.725000", "181627.215000", "181628.705000", "181630.195000", "181631.685000", "181633.175000", "181634.665000", "181636.155000", "181637.645000", "181639.135000", "181640.625000", "181642.115000", "181643.605000", "181645.095000", "181646.585000", "181648.075000", "181649.565000", "181651.055000", "181652.545000", "181654.035000", "181655.525000", "181657.015000", "181658.505000", "181659.995000", "181701.485000", "181702.975000", "181704.465000", "181705.955000", "181707.445000", "181708.935000", "181710.425000", "181711.915000", "181713.405000", "181714.895000", "181716.385000", "181717.875000", "181719.365000", "181720.855000", "181722.345000", "181723.835000", "181725.325000", "181726.815000", "181728.305000", "181729.795000", "181731.285000", "181732.775000", "181734.265000", "181735.755000", "181737.245000", "181738.735000", "181740.225000", "181741.715000", "181743.205000", "181744.695000", "181746.185000", "181747.675000", "181749.165000", "181750.655000", "181752.145000", "181753.635000", "181755.125000", "181756.615000", "181758.105000", "181759.595000", "181801.085000", "181802.575000", "181804.065000", "181805.555000", "181807.045000", "181808.535000", "181810.025000", "181811.515000", "181813.005000", "181814.495000", "181815.985000", "181817.475000", "181818.965000", "181820.455000", "181821.945000", "181823.435000", "181824.925000", "181826.415000", "181827.905000", "181829.395000", "181830.885000", "181832.375000", "181833.865000", "181835.355000", "181836.845000", "181838.335000", "181839.825000", "181841.315000", "181842.805000", "181844.295000", "181845.785000", "181847.275000", "181848.765000", "181850.255000", "181851.745000", "181853.235000", "181854.725000", "181856.215000", "181857.705000", "181859.195000", "181900.685000", "181902.175000", "181903.665000", "181905.155000", "181906.645000", "181908.135000", "181909.625000", "181911.115000", "181912.605000", "181914.095000", "181915.585000", "181917.075000", "181918.565000", "181920.055000", "181921.545000", "181923.035000", "181924.525000", "181926.015000", "181927.505000", "181928.995000", "181930.485000", "181931.975000", "181933.465000", "181934.955000", "181936.445000", "181937.935000", "181939.425000", "181940.915000", "181942.405000", "181943.895000", "181945.385000", "181946.875000", "181948.365000", "181949.855000", "181951.345000", "181952.835000", "181954.325000", "181955.815000", "181957.305000", "181958.795000", "182000.285000", "182001.775000", "182003.265000", "182004.755000", "182006.245000", "182007.735000", "182009.225000", "182010.715000", "182012.205000", "182013.695000", "182015.185000", "182016.675000", "182018.165000", "182019.655000", "182021.145000", "182022.635000", "182024.125000", "182025.615000", "182027.105000", "182028.595000", "182030.085000", "182031.575000", "182033.065000", "182034.555000", "182036.045000", "182037.535000", "182039.025000", "182040.515000", "182042.005000", "182043.495000", "182044.985000", "182046.475000", "182047.965000", "182049.455000", "182050.945000", "182052.435000", "182053.925000", "182055.415000", "182056.905000", "182058.395000", "182059.885000", "182101.375000", "182102.865000", "182104.355000", "182105.845000", "182107.335000", "182108.825000", "182110.315000", "182111.805000", "182113.295000", "182114.785000", "182116.275000", "182117.765000", "182119.255000", "182120.745000", "182122.235000", "182123.725000", "182125.215000", "182126.705000"],
      "ContentTime": ["181145.930000", "181145.933000", "181145.935000", "181145.937000", "181145.940000", "181145.942000", "181145.945000", "181145.947000", "181145.950000", "181145.952000", "181145.955000", "181145.957000", "181145.960000", "181145.962000", "181145.965000", "181145.967000", "181145.969000", "181145.972000", "181145.974000", "181145.977000", "181145.979000", "181145.982000", "181145.984000", "181145.987000", "181145.989000", "181145.992000", "181145.994000", "181145.997000", "181146.000000", "181146.003000", "181146.005000", "181146.008000", "181146.010000", "181146.012000", "181146.015000", "181146.017000", "181146.020000", "181146.022000", "181205.802000", "181205.804000", "181205.807000", "181205.809000", "181205.812000", "181205.814000", "181205.817000", "181205.819000", "181205.822000", "181205.824000", "181205.827000", "181205.829000", "181205.832000", "181205.834000", "181205.837000", "181205.839000", "181205.842000", "181205.844000", "181205.847000", "181205.849000", "181225.806000", "181225.808000", "181225.811000", "181225.813000", "181225.816000", "181225.818000", "181225.821000", "181225.823000", "181225.826000", "181225.828000", "181225.831000", "181225.833000", "181225.840000", "181225.843000", "181225.845000", "181225.848000", "181225.850000", "181225.853000", "181225.855000", "181225.858000", "181225.860000", "181245.799000", "181245.802000", "181245.804000", "181245.807000", "181245.809000", "181245.812000", "181245.814000", "181245.817000", "181245.819000", "181245.822000", "181245.824000", "181245.826000", "181245.829000", "181245.832000", "181245.834000", "181245.837000", "181245.839000", "181245.841000", "181245.844000", "181245.847000", "181325.854000", "181325.856000", "181325.859000", "181325.861000", "181325.864000", "181325.866000", "181325.869000", "181325.871000", "181325.874000", "181325.876000", "181325.879000", "181325.881000", "181325.884000", "181325.886000", "181325.888000", "181325.891000", "181325.893000", "181325.896000", "181325.898000", "181325.901000", "181325.903000", "181325.906000", "181325.908000", "181325.911000", "181325.913000", "181325.916000", "181325.918000", "181325.921000", "181325.923000", "181405.832000", "181405.835000", "181405.837000", "181405.840000", "181405.842000", "181405.845000", "181405.847000", "181405.850000", "181405.852000", "181405.855000", "181405.857000", "181405.860000", "181405.862000", "181405.865000", "181405.867000", "181405.869000", "181405.872000", "181405.874000", "181405.877000", "181405.879000", "181405.882000", "181405.884000", "181405.887000", "181405.889000", "181405.892000", "181405.894000", "181405.897000", "181445.828000", "181445.831000", "181445.834000", "181445.836000", "181445.839000", "181445.841000", "181445.844000", "181445.846000", "181445.849000", "181445.851000", "181445.854000", "181445.856000", "181445.859000", "181445.861000", "181445.864000", "181445.866000", "181445.869000", "181445.872000", "181445.874000", "181445.876000", "181445.879000", "181445.882000", "181445.884000", "181445.887000", "181445.889000", "181445.892000", "181445.894000", "181525.842000", "181525.845000", "181525.848000", "181525.850000", "181525.853000", "181525.855000", "181525.858000", "181525.860000", "181525.873000", "181525.876000", "181525.878000", "181525.881000", "181525.883000", "181525.886000", "181525.888000", "181525.891000", "181525.893000", "181525.896000", "181525.898000", "181525.901000", "181525.903000", "181525.906000", "181525.908000", "181525.911000", "181525.919000", "181525.922000", "181606.204000", "181606.206000", "181606.209000", "181606.212000", "181606.214000", "181606.217000", "181606.219000", "181606.222000", "181606.224000", "181606.227000", "181606.229000", "181606.232000", "181606.234000", "181606.237000", "181606.240000", "181606.242000", "181606.245000", "181606.247000", "181606.250000", "181606.252000", "181606.255000", "181606.257000", "181606.260000", "181606.262000", "181606.265000", "181606.267000", "181606.270000", "181645.823000", "181645.826000", "181645.829000", "181645.831000", "181645.834000", "181645.836000", "181645.839000", "181645.841000", "181645.844000", "181645.846000", "181645.849000", "181645.851000", "181645.854000", "181645.856000", "181645.859000", "181645.861000", "181645.864000", "181645.866000", "181645.869000", "181645.871000", "181645.874000", "181645.876000", "181645.879000", "181645.881000", "181645.884000", "181645.886000", "181645.889000", "181725.820000", "181725.822000", "181725.825000", "181725.828000", "181725.830000", "181725.833000", "181725.835000", "181725.838000", "181725.840000", "181725.843000", "181725.845000", "181725.848000", "181725.850000", "181725.853000", "181725.855000", "181725.858000", "181725.860000", "181725.863000", "181725.866000", "181725.868000", "181725.871000", "181725.873000", "181725.876000", "181725.878000", "181725.881000", "181725.883000", "181725.886000", "181805.844000", "181805.847000", "181805.850000", "181805.852000", "181805.855000", "181805.857000", "181805.860000", "181805.862000", "181805.865000", "181805.867000", "181805.870000", "181805.872000", "181805.875000", "181805.877000", "181805.880000", "181805.882000", "181805.885000", "181805.887000", "181805.890000", "181805.892000", "181805.895000", "181805.897000", "181805.900000", "181805.902000", "181805.905000", "181805.907000", "181805.910000", "181845.824000", "181845.826000", "181845.829000", "181845.832000", "181845.834000", "181845.837000", "181845.839000", "181845.842000", "181845.844000", "181845.847000", "181845.849000", "181845.852000", "181845.854000", "181845.857000", "181845.859000", "181845.862000", "181845.864000", "181845.867000", "181845.869000", "181845.872000", "181845.874000", "181845.877000", "181845.880000", "181845.882000", "181845.884000", "181845.887000", "181845.890000", "181925.826000", "181925.829000", "181925.832000", "181925.834000", "181925.837000", "181925.839000", "181925.842000", "181925.844000", "181925.847000", "181925.849000", "181925.853000", "181925.856000", "181925.858000", "181925.861000", "181925.863000", "181925.866000", "181925.868000", "181925.871000", "181925.873000", "181925.876000", "181925.878000", "181925.881000", "181925.883000", "181925.886000", "181925.888000", "181925.890000", "181925.893000", "182005.841000", "182005.851000", "182005.854000", "182005.857000", "182005.860000", "182005.863000", "182005.866000", "182005.868000", "182005.871000", "182005.873000", "182005.876000", "182005.878000", "182005.881000", "182005.883000", "182005.886000", "182005.888000", "182005.891000", "182005.893000", "182005.896000", "182005.898000", "182005.901000", "182005.903000", "182005.906000", "182005.908000", "182005.911000", "182005.913000", "182045.820000", "182045.823000", "182045.825000", "182045.828000", "182045.830000", "182045.833000", "182045.835000", "182045.838000", "182045.840000", "182045.843000", "182045.845000", "182045.848000", "182045.850000", "182045.853000", "182045.855000", "182045.857000", "182045.860000", "182045.862000", "182045.865000", "182045.867000", "182045.870000", "182045.872000", "182045.875000", "182045.877000", "182045.880000", "182045.882000", "182045.884000", "182125.828000", "182125.831000", "182125.833000", "182125.836000", "182125.838000", "182125.841000", "182125.843000", "182125.846000", "182125.848000", "182125.851000", "182125.854000", "182125.856000", "182125.859000", "182125.861000", "182125.863000", "182125.866000", "182125.869000", "182125.871000", "182125.874000", "182125.877000", "182125.879000", "182125.882000", "182125.884000", "182125.887000", "182125.889000", "182125.892000", "182125.894000", "182129.387000", "182129.390000", "182129.392000"],
