{
  "AcquisitionMatrixPE": 104,
  "AcquisitionNumber": 1,
  "AcquisitionTime": "17:27:55.435000",
  "BandwidthPerPixelPhaseEncode": 17.17,
  "BaseResolution": 104,
  "BodyPartExamined": "BRAIN",
  "CoilCombinationMethod": "Sum of Squares",
  "ConsistencyInfo": "N4_VE11C_LATEST_20160120",
  "ConversionSoftware": "dcm2niix",
  "ConversionSoftwareVersion": "v1.0.20211006",
  "DerivedVendorReportedEchoSpacing": 0.000560011,
  "DeviceSerialNumber": "167006",
  "DwellTime": 2.1e-06,
  "EchoTime": 0.037,
  "EchoTime1": 0.037,
  "EchoTime2": 0.001,
  "EchoTrainLength": 104,
  "EffectiveEchoSpacing": 0.000560011,
  "FlipAngle": 52,
  "HeudiconvVersion": "0.10.0",
  "ImageComments": "Unaliased MB4/PE3/LB",
  "ImageOrientationPatientDICOM": [0.996236, 0.0762172, 0.041289, -0.0569193, 0.934437, -0.351549],
  "ImageOrientationText": "Tra>Cor(-20.4)>Sag(3.7)",
  "ImageType": [
    "ORIGINAL",
    "PRIMARY",
    "P",
    "MB",
    "ND",
    "MOSAIC",
    "PHASE"
],
  "ImagingFrequency": 123.259,
  "InPlanePhaseEncodingDirectionDICOM": "COL",
  "InstitutionAddress": "Chemin Queen-Mary 4565,Montreal,District,CA,H3W 1W5",
  "InstitutionName": "IUGM",
  "InstitutionalDepartmentName": "Department",
  "MRAcquisitionType": "2D",
  "MagneticFieldStrength": 3,
  "Manufacturer": "Siemens",
  "ManufacturersModelName": "Prisma_fit",
  "MatrixCoilMode": "SENSE",
  "Modality": "MR",
  "MultibandAccelerationFactor": 4,
  "PartialFourier": 1,
  "PatientPosition": "HFS",
  "PercentPhaseFOV": 100,
  "PercentSampling": 100,
  "PhaseEncodingDirection": "j",
  "PhaseEncodingSteps": 104,
  "PhaseResolution": 1,
  "PixelBandwidth": 2290,
  "ProcedureStepDescription": "games^mario",
  "ProtocolName": "func_task-mario_run-01",
  "PulseSequenceDetails": "%CustomerSeq%\\cmrr_mbep2d_bold",
  "ReceiveCoilActiveElements": "HC1-7;NC1,2",
  "ReceiveCoilName": "HeadNeck_64",
  "ReconMatrixPE": 104,
  "RepetitionTime": 1.49,
  "SAR": 0.0564083,
  "ScanOptions": "FS",
  "ScanningSequence": "EP",
  "SequenceName": "epfid2d1_104",
  "SequenceVariant": "SK\\SS",
  "SeriesDescription": "func_task-mario_run-01",
  "SeriesNumber": 11,
  "ShimSetting": [632, -7190, -8837, 620, 70, 0, -48, -31],
  "SliceThickness": 2,
  "SliceTiming": [0, 0.7825, 0.0975, 0.8825, 0.195, 0.98, 0.2925, 1.0775, 0.3925, 1.175, 0.49, 1.2725, 0.5875, 1.3725, 0.685, 0, 0.7825, 0.0975, 0.8825, 0.195, 0.98, 0.2925, 1.0775, 0.3925, 1.175, 0.49, 1.2725, 0.5875, 1.3725, 0.685, 0, 0.7825, 0.0975, 0.8825, 0.195, 0.98, 0.2925, 1.0775, 0.3925, 1.175, 0.49, 1.2725, 0.5875, 1.3725, 0.685, 0, 0.7825, 0.0975, 0.8825, 0.195, 0.98, 0.2925, 1.0775, 0.3925, 1.175, 0.49, 1.2725, 0.5875, 1.3725, 0.685],
  "SoftwareVersions": "syngo MR E11",
  "SpacingBetweenSlices": 2,
  "StationName": "MRC35049",
  "TaskName": "mario",
  "TotalReadoutTime": 0.0576811,
  "TxRefAmp": 286.126,
  "WipMemBlock": "d09e99c5-635f-4808-9f66-38ea38e2d8bb||Sequence: R016 ve11c/master r/e634e98; Dec 19 2017 11:00:25 by eja",
  "dcmmeta_affine": [
    [-1.9924719333648682, -0.11383864283561707, 0.130752295255661, 109.00677490234375],
    [-0.15243443846702576, 1.8688747882843018, -0.6957520842552185, -52.49039077758789],
    [0.08257809281349182, 0.7030988335609436, 1.8705167770385742, -70.44981384277344],
    [0.0, 0.0, 0.0, 1.0]
],
  "dcmmeta_reorient_transform": [
    [0.0, -1.0, 0.0, 103.0],
    [1.0, 0.0, 0.0, 0.0],
    [0.0, 0.0, 1.0, 0.0],
    [0.0, 0.0, 0.0, 1.0]
],
  "dcmmeta_shape": [104, 104, 60, 426],
  "dcmmeta_slice_dim": 2,
  "dcmmeta_version": 0.6,
  "global": {
    "const": {
      "AcquisitionMatrix": [104, 0, 0, 104],
      "AngioFlag": "N",
      "BitsAllocated": 16,
      "BitsStored": 16,
      "BodyPartExamined": "BRAIN",
      "Columns": 832,
      "EchoNumbers": 1,
      "EchoTime": 37.0,
      "EchoTrainLength": 104,
      "FlipAngle": 52.0,
      "HighBit": 15,
      "ImageOrientationPatient": [0.99623599143402, 0.07621721690233, 0.0412890447835, -0.0569193206752, 0.93443736875926, -0.3515494201391],
      "ImagePositionPatient": [-781.10392745519, -875.76024515326, 227.83891615511],
      "ImageType": [
        "ORIGINAL",
        "PRIMARY",
        "P",
        "MB",
        "ND",
        "MOSAIC"
],
      "ImagedNucleus": "1H",
      "ImagingFrequency": 123.25886,
      "InPlanePhaseEncodingDirection": "COL",
      "LargestImagePixelValue": 4095,
      "MRAcquisitionType": "2D",
      "MagneticFieldStrength": 3.0,
      "Manufacturer": "SIEMENS",
      "ManufacturerModelName": "Prisma_fit",
      "Modality": "MR",
      "NumberOfAverages": 1.0,
      "NumberOfPhaseEncodingSteps": 104,
      "PercentPhaseFieldOfView": 100.0,
      "PercentSampling": 100.0,
      "PerformedProcedureStepStartTime": "171544.086000",
      "PhotometricInterpretation": "MONOCHROME2",
      "PixelBandwidth": 2290.0,
      "PixelRepresentation": 0,
      "PixelSpacing": [2.0, 2.0],
      "ProtocolName": "func_task-mario_run-01",
      "RepetitionTime": 1490.0,
      "RescaleIntercept": -4096.0,
      "RescaleSlope": 2.0,
      "RescaleType": "US",
      "Rows": 832,
      "SAR": 0.05640829210752,
      "SamplesPerPixel": 1,
      "ScanOptions": "FS",
      "ScanningSequence": "EP",
      "SequenceName": "epfid2d1_104",
      "SequenceVariant": [
        "SK",
        "SS"
],
      "SeriesDescription": "func_task-mario_run-01",
      "SeriesNumber": 11,
      "SeriesTime": "172925.934000",
      "SliceLocation": -40.502189761473,
      "SliceThickness": 2.0,
      "SmallestImagePixelValue": 0,
      "SoftwareVersions": "syngo MR E11",
      "SpacingBetweenSlices": 2.0000000408128,
      "SpecificCharacterSet": "ISO_IR 100",
      "StudyID": "1",
      "StudyTime": "171544.010000",
      "TransmitCoilName": "Body",
      "VariableFlipAngleFlag": "N",
      "WindowCenterWidthExplanation": "Algo1",
      "dBdt": 0.0},
    "slices": {}
  },
  "time": {
    "samples": {
      "AcquisitionNumber": [1, 2, 3, 4, 5, 6, 7, 8, 9, 10, 11, 12, 13, 14, 15, 16, 17, 18, 19, 20, 21, 22, 23, 24, 25, 26, 27, 28, 29, 30, 31, 32, 33, 34, 35, 36, 37, 38, 39, 40, 41, 42, 43, 44, 45, 46, 47, 48, 49, 50, 51, 52, 53, 54, 55, 56, 57, 58, 59, 60, 61, 62, 63, 64, 65, 66, 67, 68, 69, 70, 71, 72, 73, 74, 75, 76, 77, 78, 79, 80, 81, 82, 83, 84, 85, 86, 87, 88, 89, 90, 91, 92, 93, 94, 95, 96, 97, 98, 99, 100, 101, 102, 103, 104, 105, 106, 107, 108, 109, 110, 111, 112, 113, 114, 115, 116, 117, 118, 119, 120, 121, 122, 123, 124, 125, 126, 127, 128, 129, 130, 131, 132, 133, 134, 135, 136, 137, 138, 139, 140, 141, 142, 143, 144, 145, 146, 147, 148, 149, 150, 151, 152, 153, 154, 155, 156, 157, 158, 159, 160, 161, 162, 163, 164, 165, 166, 167, 168, 169, 170, 171, 172, 173, 174, 175, 176, 177, 178, 179, 180, 181, 182, 183, 184, 185, 186, 187, 188, 189, 190, 191, 192, 193, 194, 195, 196, 197, 198, 199, 200, 201, 202, 203, 204, 205, 206, 207, 208, 209, 210, 211, 212, 213, 214, 215, 216, 217, 218, 219, 220, 221, 222, 223, 224, 225, 226, 227, 228, 229, 230, 231, 232, 233, 234, 235, 236, 237, 238, 239, 240, 241, 242, 243, 244, 245, 246, 247, 248, 249, 250, 251, 252, 253, 254, 255, 256, 257, 258, 259, 260, 261, 262, 263, 264, 265, 266, 267, 268, 269, 270, 271, 272, 273, 274, 275, 276, 277, 278, 279, 280, 281, 282, 283, 284, 285, 286, 287, 288, 289, 290, 291, 292, 293, 294, 295, 296, 297, 298, 299, 300, 301, 302, 303, 304, 305, 306, 307, 308, 309, 310, 311, 312, 313, 314, 315, 316, 317, 318, 319, 320, 321, 322, 323, 324, 325, 326, 327, 328, 329, 330, 331, 332, 333, 334, 335, 336, 337, 338, 339, 340, 341, 342, 343, 344, 345, 346, 347, 348, 349, 350, 351, 352, 353, 354, 355, 356, 357, 358, 359, 360, 361, 362, 363, 364, 365, 366, 367, 368, 369, 370, 371, 372, 373, 374, 375, 376, 377, 378, 379, 380, 381, 382, 383, 384, 385, 386, 387, 388, 389, 390, 391, 392, 393, 394, 395, 396, 397, 398, 399, 400, 401, 402, 403, 404, 405, 406, 407, 408, 409, 410, 411, 412, 413, 414, 415, 416, 417, 418, 419, 420, 421, 422, 423, 424, 425, 426],
      "AcquisitionTime": ["172755.435000", "172756.925000", "172758.415000", "172759.905000", "172801.395000", "172802.885000", "172804.375000", "172805.865000", "172807.355000", "172808.845000", "172810.335000", "172811.825000", "172813.315000", "172814.805000", "172816.295000", "172817.785000", "172819.275000", "172820.765000", "172822.255000", "172823.745000", "172825.235000", "172826.725000", "172828.215000", "172829.705000", "172831.195000", "172832.685000", "172834.175000", "172835.665000", "172837.155000", "172838.645000", "172840.135000", "172841.625000", "172843.115000", "172844.605000", "172846.095000", "172847.585000", "172849.075000", "172850.565000", "172852.055000", "172853.545000", "172855.035000", "172856.525000", "172858.015000", "172859.505000", "172900.995000", "172902.485000", "172903.975000", "172905.465000", "172906.955000", "172908.445000", "172909.935000", "172911.425000", "172912.915000", "172914.405000", "172915.895000", "172917.385000", "172918.875000", "172920.365000", "172921.855000", "172923.345000", "172924.835000", "172926.325000", "172927.815000", "172929.305000", "172930.795000", "172932.285000", "172933.775000", "172935.265000", "172936.755000", "172938.245000", "172939.735000", "172941.225000", "172942.715000", "172944.205000", "172945.695000", "172947.185000", "172948.675000", "172950.165000", "172951.655000", "172953.145000", "172954.635000", "172956.125000", "172957.615000", "172959.105000", "173000.595000", "173002.085000", "173003.575000", "173005.065000", "173006.555000", "173008.045000", "173009.535000", "173011.025000", "173012.515000", "173014.005000", "173015.495000", "173016.985000", "173018.475000", "173019.965000", "173021.455000", "173022.945000", "173024.435000", "173025.925000", "173027.415000", "173028.905000", "173030.395000", "173031.885000", "173033.375000", "173034.865000", "173036.355000", "173037.845000", "173039.335000", "173040.825000", "173042.315000", "173043.805000", "173045.295000", "173046.785000", "173048.275000", "173049.765000", "173051.255000", "173052.745000", "173054.235000", "173055.725000", "173057.215000", "173058.705000", "173100.195000", "173101.685000", "173103.175000", "173104.665000", "173106.155000", "173107.645000", "173109.135000", "173110.625000", "173112.115000", "173113.605000", "173115.095000", "173116.585000", "173118.075000", "173119.565000", "173121.055000", "173122.545000", "173124.035000", "173125.525000", "173127.015000", "173128.505000", "173129.995000", "173131.485000", "173132.975000", "173134.465000", "173135.955000", "173137.445000", "173138.935000", "173140.425000", "173141.915000", "173143.405000", "173144.895000", "173146.385000", "173147.875000", "173149.365000", "173150.855000", "173152.345000", "173153.835000", "173155.325000", "173156.815000", "173158.305000", "173159.795000", "173201.285000", "173202.775000", "173204.265000", "173205.755000", "173207.245000", "173208.735000", "173210.225000", "173211.715000", "173213.205000", "173214.695000", "173216.185000", "173217.675000", "173219.165000", "173220.655000", "173222.145000", "173223.635000", "173225.125000", "173226.615000", "173228.105000", "173229.595000", "173231.085000", "173232.575000", "173234.065000", "173235.555000", "173237.045000", "173238.535000", "173240.025000", "173241.515000", "173243.005000", "173244.495000", "173245.985000", "173247.475000", "173248.965000", "173250.455000", "173251.945000", "173253.435000", "173254.925000", "173256.415000", "173257.905000", "173259.395000", "173300.885000", "173302.375000", "173303.865000", "173305.355000", "173306.845000", "173308.335000", "173309.825000", "173311.315000", "173312.805000", "173314.295000", "173315.785000", "173317.275000", "173318.765000", "173320.255000", "173321.745000", "173323.235000", "173324.725000", "173326.215000", "173327.705000", "173329.195000", "173330.685000", "173332.175000", "173333.665000", "173335.155000", "173336.645000", "173338.135000", "173339.625000", "173341.115000", "173342.605000", "173344.095000", "173345.585000", "173347.075000", "173348.565000", "173350.055000", "173351.545000", "173353.035000", "173354.525000", "173356.015000", "173357.505000", "173358.995000", "173400.485000", "173401.975000", "173403.465000", "173404.955000", "173406.445000", "173407.935000", "173409.425000", "173410.915000", "173412.405000", "173413.895000", "173415.385000", "173416.875000", "173418.365000", "173419.855000", "173421.345000", "173422.835000", "173424.325000", "173425.815000", "173427.305000", "173428.795000", "173430.285000", "173431.775000", "173433.265000", "173434.755000", "173436.245000", "173437.735000", "173439.225000", "173440.715000", "173442.205000", "173443.695000", "173445.185000", "173446.675000", "173448.165000", "173449.655000", "173451.145000", "173452.635000", "173454.125000", "173455.615000", "173457.105000", "173458.595000", "173500.085000", "173501.575000", "173503.065000", "173504.555000", "173506.045000", "173507.535000", "173509.025000", "173510.515000", "173512.005000", "173513.495000", "173514.985000", "173516.475000", "173517.965000", "173519.455000", "173520.945000", "173522.435000", "173523.925000", "173525.415000", "173526.905000", "173528.395000", "173529.885000", "173531.375000", "173532.865000", "173534.355000", "173535.845000", "173537.335000", "173538.825000", "173540.315000", "173541.805000", "173543.295000", "173544.785000", "173546.275000", "173547.765000", "173549.255000", "173550.745000", "173552.235000", "173553.725000", "173555.215000", "173556.705000", "173558.195000", "173559.685000", "173601.175000", "173602.665000", "173604.155000", "173605.645000", "173607.135000", "173608.625000", "173610.115000", "173611.605000", "173613.095000", "173614.585000", "173616.075000", "173617.565000", "173619.055000", "173620.545000", "173622.035000", "173623.525000", "173625.015000", "173626.505000", "173627.995000", "173629.485000", "173630.975000", "173632.465000", "173633.955000", "173635.445000", "173636.935000", "173638.425000", "173639.915000", "173641.405000", "173642.895000", "173644.385000", "173645.875000", "173647.365000", "173648.855000", "173650.345000", "173651.835000", "173653.325000", "173654.815000", "173656.305000", "173657.795000", "173659.285000", "173700.775000", "173702.265000", "173703.755000", "173705.245000", "173706.735000", "173708.225000", "173709.715000", "173711.205000", "173712.695000", "173714.185000", "173715.675000", "173717.165000", "173718.655000", "173720.145000", "173721.635000", "173723.125000", "173724.615000", "173726.105000", "173727.595000", "173729.085000", "173730.575000", "173732.065000", "173733.555000", "173735.045000", "173736.535000", "173738.025000", "173739.515000", "173741.005000", "173742.495000", "173743.985000", "173745.475000", "173746.965000", "173748.455000", "173749.945000", "173751.435000", "173752.925000", "173754.415000", "173755.905000", "173757.395000", "173758.885000", "173800.375000", "173801.865000", "173803.355000", "173804.845000", "173806.335000", "173807.825000", "173809.315000", "173810.805000", "173812.295000", "173813.785000", "173815.275000", "173816.765000", "173818.255000", "173819.745000", "173821.235000", "173822.725000", "173824.215000", "173825.705000", "173827.195000", "173828.685000"],
      "ContentTime": ["172925.936000", "172925.939000", "172925.942000", "172925.944000", "172925.947000", "172925.949000", "172925.952000", "172925.954000", "172925.956000", "172925.959000", "172925.961000", "172925.964000", "172925.966000", "172925.969000", "172925.971000", "172925.974000", "172925.976000", "172925.979000", "172925.981000", "172925.983000", "172925.986000", "172925.989000", "172925.991000", "172925.994000", "172925.996000", "172926.000000", "172926.002000", "172926.005000", "172926.007000", "172926.010000", "172926.013000", "172926.015000", "172926.018000", "172926.021000", "172926.023000", "172926.026000", "172945.802000", "172945.805000", "172945.807000", "172945.817000", "172945.820000", "172945.822000", "172945.825000", "172945.827000", "172945.830000", "172945.832000", "172945.835000", "172945.837000", "172945.840000", "172945.842000", "172945.844000", "172945.847000", "172945.849000", "172945.852000", "172945.854000", "172945.857000", "173005.812000", "173005.815000", "173005.818000", "173005.820000", "173005.823000", "173005.825000", "173005.828000", "173005.830000", "173005.832000", "173005.835000", "173005.838000", "173005.840000", "173005.843000", "173005.845000", "173005.848000", "173005.850000", "173005.853000", "173005.855000", "173005.858000", "173005.860000", "173005.863000", "173025.795000", "173025.797000", "173025.800000", "173025.802000", "173025.805000", "173025.807000", "173025.810000", "173025.812000", "173025.815000", "173025.817000", "173025.820000", "173025.822000", "173025.825000", "173025.827000", "173025.829000", "173025.832000", "173025.834000", "173025.837000", "173025.839000", "173025.842000", "173105.842000", "173105.845000", "173105.847000", "173105.850000", "173105.852000", "173105.855000", "173105.857000", "173105.860000", "173105.862000", "173105.865000", "173105.867000", "173105.870000", "173105.872000", "173105.875000", "173105.877000", "173105.880000", "173105.882000", "173105.885000", "173105.887000", "173105.890000", "173105.892000", "173105.895000", "173105.897000", "173105.900000", "173105.902000", "173105.905000", "173105.907000", "173105.909000", "173105.912000", "173105.914000", "173145.822000", "173145.825000", "173145.833000", "173145.836000", "173145.838000", "173145.840000", "173145.843000", "173145.845000", "173145.848000", "173145.850000", "173145.853000", "173145.856000", "173145.858000", "173145.860000", "173145.863000", "173145.866000", "173145.868000", "173145.871000", "173145.873000", "173145.876000", "173145.878000", "173145.881000", "173145.883000", "173145.886000", "173145.888000", "173145.891000", "173145.893000", "173225.835000", "173225.838000", "173225.840000", "173225.843000", "173225.845000", "173225.848000", "173225.850000", "173225.853000", "173225.855000", "173225.858000", "173225.860000", "173225.863000", "173225.866000", "173225.868000", "173225.871000", "173225.873000", "173225.875000", "173225.878000", "173225.880000", "173225.883000", "173225.885000", "173225.888000", "173225.890000", "173225.893000", "173225.895000", "173225.898000", "173225.900000", "173305.826000", "173305.828000", "173305.831000", "173305.833000", "173305.836000", "173305.838000", "173305.841000", "173305.843000", "173305.846000", "173305.848000", "173305.851000", "173305.853000", "173305.859000", "173305.861000", "173305.864000", "173305.866000", "173305.869000", "173305.871000", "173305.875000", "173305.877000", "173305.880000", "173305.882000", "173305.885000", "173305.887000", "173305.890000", "173305.892000", "173345.857000", "173345.859000", "173345.862000", "173345.864000", "173345.867000", "173345.869000", "173345.872000", "173345.874000", "173345.877000", "173345.879000", "173345.882000", "173345.884000", "173345.886000", "173345.889000", "173345.891000", "173345.894000", "173345.896000", "173345.899000", "173345.902000", "173345.904000", "173345.906000", "173345.909000", "173345.911000", "173345.914000", "173345.916000", "173345.919000", "173345.921000", "173405.769000", "173405.772000", "173405.775000", "173405.777000", "173405.779000", "173405.782000", "173405.784000", "173405.787000", "173405.789000", "173405.796000", "173405.798000", "173405.801000", "173405.803000", "173405.806000", "173446.291000", "173446.293000", "173446.296000", "173446.298000", "173446.301000", "173446.303000", "173446.306000", "173446.308000", "173446.310000", "173446.313000", "173446.316000", "173446.318000", "173446.320000", "173446.323000", "173446.325000", "173446.328000", "173446.331000", "173446.333000", "173446.335000", "173446.338000", "173446.340000", "173446.343000", "173446.345000", "173446.348000", "173446.350000", "173446.353000", "173525.831000", "173525.834000", "173525.836000", "173525.839000", "173525.841000", "173525.844000", "173525.846000", "173525.849000", "173525.852000", "173525.854000", "173525.856000", "173525.859000", "173525.862000", "173525.865000", "173525.867000", "173525.870000", "173525.872000", "173525.875000", "173525.877000", "173525.881000", "173525.883000", "173525.886000", "173525.888000", "173525.891000", "173525.893000", "173525.896000", "173525.898000", "173605.838000", "173605.841000", "173605.843000", "173605.846000", "173605.848000", "173605.851000", "173605.853000", "173605.856000", "173605.859000", "173605.861000", "173605.864000", "173605.866000", "173605.869000", "173605.871000", "173605.874000", "173605.876000", "173605.879000", "173605.881000", "173605.884000", "173605.886000", "173605.889000", "173605.891000", "173605.894000", "173605.896000", "173605.899000", "173605.901000", "173605.904000", "173645.829000", "173645.832000", "173645.835000", "173645.837000", "173645.840000", "173645.842000", "173645.845000", "173645.847000", "173645.850000", "173645.852000", "173645.855000", "173645.857000", "173645.860000", "173645.862000", "173645.865000", "173645.867000", "173645.869000", "173645.872000", "173645.874000", "173645.877000", "173645.879000", "173645.882000", "173645.884000", "173645.887000", "173645.889000", "173645.892000", "173645.894000", "173725.832000", "173725.834000", "173725.837000", "173725.839000", "173725.842000", "173725.844000", "173725.847000", "173725.849000", "173725.852000", "173725.854000", "173725.857000", "173725.859000", "173725.862000", "173725.864000", "173725.867000", "173725.869000", "173725.872000", "173725.874000", "173725.877000", "173725.879000", "173725.882000", "173725.884000", "173725.886000", "173725.889000", "173725.891000", "173725.894000", "173725.896000", "173805.828000", "173805.831000", "173805.833000", "173805.836000", "173805.838000", "173805.841000", "173805.843000", "173805.846000", "173805.848000", "173805.851000", "173805.853000", "173805.856000", "173805.858000", "173805.861000", "173805.863000", "173805.866000", "173805.868000", "173805.871000", "173805.873000", "173805.875000", "173805.878000", "173805.881000", "173805.883000", "173805.886000", "173805.894000", "173805.897000", "173805.899000", "173832.176000", "173832.179000", "173832.181000", "173832.184000", "173832.186000", "173832.188000", "173832.191000", "173832.193000", "173832.196000", "173832.198000", "173832.201000", "173832.203000", "173832.206000", "173832.208000", "173832.211000", "173832.213000", "173832.216000"],
      "InstanceCreationTime": ["172925.936000", "172925.939000", "172925.942000", "172925.944000", "172925.947000", "172925.949000", "172925.952000", "172925.954000", "172925.956000", "172925.959000", "172925.961000", "172925.964000", "172925.966000", "172925.969000", "172925.971000", "172925.974000", "172925.976000", "172925.979000", "172925.981000", "172925.983000", "172925.986000", "172925.989000", "172925.991000", "172925.994000", "172925.996000", "172926.000000", "172926.002000", "172926.005000", "172926.007000", "172926.010000", "172926.013000", "172926.015000", "172926.018000", "172926.021000", "172926.023000", "172926.026000", "172945.802000", "172945.805000", "172945.807000", "172945.817000", "172945.820000", "172945.822000", "172945.825000", "172945.827000", "172945.830000", "172945.832000", "172945.835000", "172945.837000", "172945.840000", "172945.842000", "172945.844000", "172945.847000", "172945.849000", "172945.852000", "172945.854000", "172945.857000", "173005.812000", "173005.815000", "173005.818000", "173005.820000", "173005.823000", "173005.825000", "173005.828000", "173005.830000", "173005.832000", "173005.835000", "173005.838000", "173005.840000", "173005.843000", "173005.845000", "173005.848000", "173005.850000", "173005.853000", "173005.855000", "173005.858000", "173005.860000", "173005.863000", "173025.795000", "173025.797000", "173025.800000", "173025.802000", "173025.805000", "173025.807000", "173025.810000", "173025.812000", "173025.815000", "173025.817000", "173025.820000", "173025.822000", "173025.825000", "173025.827000", "173025.829000", "173025.832000", "173025.834000", "173025.837000", "173025.839000", "173025.842000", "173105.842000", "173105.845000", "173105.847000", "173105.850000", "173105.852000", "173105.855000", "173105.857000", "173105.860000", "173105.862000", "173105.865000", "173105.867000", "173105.870000", "173105.872000", "173105.875000", "173105.877000", "173105.880000", "173105.882000", "173105.885000", "173105.887000", "173105.890000", "173105.892000", "173105.895000", "173105.897000", "173105.900000", "173105.902000", "173105.905000", "173105.907000", "173105.909000", "173105.912000", "173105.914000", "173145.822000", "173145.825000", "173145.833000", "173145.836000", "173145.838000", "173145.840000", "173145.843000", "173145.845000", "173145.848000", "173145.850000", "173145.853000", "173145.856000", "173145.858000", "173145.860000", "173145.863000", "173145.866000", "173145.868000", "173145.871000", "173145.873000", "173145.876000", "173145.878000", "173145.881000", "173145.883000", "173145.886000", "173145.888000", "173145.891000", "173145.893000", "173225.835000", "173225.838000", "173225.840000", "173225.843000", "173225.845000", "173225.848000", "173225.850000", "173225.853000", "173225.855000", "173225.858000", "173225.860000", "173225.863000", "173225.866000", "173225.868000", "173225.871000", "173225.873000", "173225.875000", "173225.878000", "173225.880000", "173225.883000", "173225.885000", "173225.888000", "173225.890000", "173225.893000", "173225.895000", "173225.898000", "173225.900000", "173305.826000", "173305.828000", "173305.831000", "173305.833000", "173305.836000", "173305.838000", "173305.841000", "173305.843000", "173305.846000", "173305.848000", "173305.851000", "173305.853000", "173305.859000", "173305.861000", "173305.864000", "173305.866000", "173305.869000", "173305.871000", "173305.875000", "173305.877000", "173305.880000", "173305.882000", "173305.885000", "173305.887000", "173305.890000", "173305.892000", "173345.857000", "173345.859000", "173345.862000", "173345.864000", "173345.867000", "173345.869000", "173345.872000", "173345.874000", "173345.877000", "173345.879000", "173345.882000", "173345.884000", "173345.886000", "173345.889000", "173345.891000", "173345.894000", "173345.896000", "173345.899000", "173345.902000", "173345.904000", "173345.906000", "173345.909000", "173345.911000", "173345.914000", "173345.916000", "173345.919000", "173345.921000", "173405.769000", "173405.772000", "173405.775000", "173405.777000", "173405.779000", "173405.782000", "173405.784000", "173405.787000", "173405.789000", "173405.796000", "173405.798000", "173405.801000", "173405.803000", "173405.806000", "173446.291000", "173446.293000", "173446.296000", "173446.298000", "173446.301000", "173446.303000", "173446.306000", "173446.308000", "173446.310000", "173446.313000", "173446.316000", "173446.318000", "173446.320000", "173446.323000", "173446.325000", "173446.328000", "173446.331000", "173446.333000", "173446.335000", "173446.338000", "173446.340000", "173446.343000", "173446.345000", "173446.348000", "173446.350000", "173446.353000", "173525.831000", "173525.834000", "173525.836000", "173525.839000", "173525.841000", "173525.844000", "173525.846000", "173525.849000", "173525.852000", "173525.854000", "173525.856000", "173525.859000", "173525.862000", "173525.865000", "173525.867000", "173525.870000", "173525.872000", "173525.875000", "173525.877000", "173525.881000", "173525.883000", "173525.886000", "173525.888000", "173525.891000", "173525.893000", "173525.896000", "173525.898000", "173605.838000", "173605.841000", "173605.843000", "173605.846000", "173605.848000", "173605.851000", "173605.853000", "173605.856000", "173605.859000", "173605.861000", "173605.864000", "173605.866000", "173605.869000", "173605.871000", "173605.874000", "173605.876000", "173605.879000", "173605.881000", "173605.884000", "173605.886000", "173605.889000", "173605.891000", "173605.894000", "173605.896000", "173605.899000", "173605.901000", "173605.904000", "173645.829000", "173645.832000", "173645.835000", "173645.837000", "173645.840000", "173645.842000", "173645.845000", "173645.847000", "173645.850000", "173645.852000", "173645.855000", "173645.857000", "173645.860000", "173645.862000", "173645.865000", "173645.867000", "173645.869000", "173645.872000", "173645.874000", "173645.877000", "173645.879000", "173645.882000", "173645.884000", "173645.887000", "173645.889000", "173645.892000", "173645.894000", "173725.832000", "173725.834000", "173725.837000", "173725.839000", "173725.842000", "173725.844000", "173725.847000", "173725.849000", "173725.852000", "173725.854000", "173725.857000", "173725.859000", "173725.862000", "173725.864000", "173725.867000", "173725.869000", "173725.872000", "173725.874000", "173725.877000", "173725.879000", "173725.882000", "173725.884000", "173725.886000", "173725.889000", "173725.891000", "173725.894000", "173725.896000", "173805.828000", "173805.831000", "173805.833000", "173805.836000", "173805.838000", "173805.841000", "173805.843000", "173805.846000", "173805.848000", "173805.851000", "173805.853000", "173805.856000", "173805.858000", "173805.861000", "173805.863000", "173805.866000", "173805.868000", "173805.871000", "173805.873000", "173805.875000", "173805.878000", "173805.881000", "173805.883000", "173805.886000", "173805.894000", "173805.897000", "173805.899000", "173832.176000", "173832.179000", "173832.181000", "173832.184000", "173832.186000", "173832.188000", "173832.191000", "173832.193000", "173832.196000", "173832.198000", "173832.201000", "173832.203000", "173832.206000", "173832.208000", "173832.211000", "173832.213000", "173832.216000"],
