{
  "AcquisitionMatrixPE": 104,
  "AcquisitionNumber": 1,
  "AcquisitionTime": "18:10:13.225000",
  "BandwidthPerPixelPhaseEncode": 17.17,
  "BaseResolution": 104,
  "BodyPartExamined": "BRAIN",
  "CoilCombinationMethod": "Sum of Squares",
  "ConsistencyInfo": "N4_VE11C_LATEST_20160120",
  "ConversionSoftware": "dcm2niix",
  "ConversionSoftwareVersion": "v1.0.20211006",
  "DerivedVendorReportedEchoSpacing": 0.000560011,
  "DeviceSerialNumber": "167006",
  "DwellTime": 2.1e-06,
  "EchoTime": 0.037,
  "EchoTrainLength": 104,
  "EffectiveEchoSpacing": 0.000560011,
  "FlipAngle": 52,
  "HeudiconvVersion": "0.10.0",
  "ImageComments": "Unaliased MB4/PE3/LB",
  "ImageOrientationPatientDICOM": [0.996236, 0.0762172, 0.041289, -0.0569193, 0.934437, -0.351549],
  "ImageOrientationText": "Tra>Cor(-20.4)>Sag(3.7)",
  "ImageType": [
    "ORIGINAL",
    "PRIMARY",
    "M",
    "MB",
    "ND",
    "MOSAIC"
],
  "ImagingFrequency": 123.259,
  "InPlanePhaseEncodingDirectionDICOM": "COL",
  "InstitutionAddress": "Chemin Queen-Mary 4565,Montreal,District,CA,H3W 1W5",
  "InstitutionName": "IUGM",
  "InstitutionalDepartmentName": "Department",
  "MRAcquisitionType": "2D",
  "MagneticFieldStrength": 3,
  "Manufacturer": "Siemens",
  "ManufacturersModelName": "Prisma_fit",
  "MatrixCoilMode": "SENSE",
  "Modality": "MR",
  "MultibandAccelerationFactor": 4,
  "PartialFourier": 1,
  "PatientPosition": "HFS",
  "PercentPhaseFOV": 100,
  "PercentSampling": 100,
  "PhaseEncodingDirection": "j",
  "PhaseEncodingSteps": 104,
  "PhaseResolution": 1,
  "PixelBandwidth": 2290,
  "ProcedureStepDescription": "games^mario",
  "ProtocolName": "func_task-mario_run-04",
  "PulseSequenceDetails": "%CustomerSeq%\\cmrr_mbep2d_bold",
  "ReceiveCoilActiveElements": "HC1-7;NC1,2",
  "ReceiveCoilName": "HeadNeck_64",
  "ReconMatrixPE": 104,
  "RepetitionTime": 1.49,
  "SAR": 0.0564083,
  "ScanOptions": "FS",
  "ScanningSequence": "EP",
  "SequenceName": "epfid2d1_104",
  "SequenceVariant": "SK\\SS",
  "SeriesDescription": "func_task-mario_run-04",
  "SeriesNumber": 19,
  "ShimSetting": [632, -7190, -8837, 620, 70, 0, -48, -31],
  "SliceThickness": 2,
  "SliceTiming": [0, 0.7825, 0.0975, 0.8825, 0.195, 0.98, 0.2925, 1.0775, 0.3925, 1.175, 0.49, 1.2725, 0.5875, 1.3725, 0.685, 0, 0.7825, 0.0975, 0.8825, 0.195, 0.98, 0.2925, 1.0775, 0.3925, 1.175, 0.49, 1.2725, 0.5875, 1.3725, 0.685, 0, 0.7825, 0.0975, 0.8825, 0.195, 0.98, 0.2925, 1.0775, 0.3925, 1.175, 0.49, 1.2725, 0.5875, 1.3725, 0.685, 0, 0.7825, 0.0975, 0.8825, 0.195, 0.98, 0.2925, 1.0775, 0.3925, 1.175, 0.49, 1.2725, 0.5875, 1.3725, 0.685],
  "SoftwareVersions": "syngo MR E11",
  "SpacingBetweenSlices": 2,
  "StationName": "MRC35049",
  "TaskName": "mario",
  "TotalReadoutTime": 0.0576811,
  "TxRefAmp": 286.126,
  "WipMemBlock": "46b79fc1-9cdb-4ba3-8dab-9f8f92b917ab||Sequence: R016 ve11c/master r/e634e98; Dec 19 2017 11:00:25 by eja",
  "dcmmeta_affine": [
    [-1.9924719333648682, -0.11383864283561707, 0.130752295255661, 109.00677490234375],
    [-0.15243443846702576, 1.8688747882843018, -0.6957520842552185, -52.49039077758789],
    [0.08257809281349182, 0.7030988335609436, 1.8705167770385742, -70.44981384277344],
    [0.0, 0.0, 0.0, 1.0]
],
  "dcmmeta_reorient_transform": [
    [0.0, -1.0, 0.0, 103.0],
    [1.0, 0.0, 0.0, 0.0],
    [0.0, 0.0, 1.0, 0.0],
    [0.0, 0.0, 0.0, 1.0]
],
  "dcmmeta_shape": [104, 104, 60, 453],
  "dcmmeta_slice_dim": 2,
  "dcmmeta_version": 0.6,
  "global": {
    "const": {
      "AcquisitionMatrix": [104, 0, 0, 104],
      "AngioFlag": "N",
      "BitsAllocated": 16,
      "BitsStored": 16,
      "BodyPartExamined": "BRAIN",
      "Columns": 832,
      "EchoNumbers": 1,
      "EchoTime": 37.0,
      "EchoTrainLength": 104,
      "FlipAngle": 52.0,
      "HighBit": 15,
      "ImageOrientationPatient": [0.99623599143402, 0.07621721690233, 0.0412890447835, -0.0569193206752, 0.93443736875926, -0.3515494201391],
      "ImagePositionPatient": [-781.10392745519, -875.76024515326, 227.83891615511],
      "ImageType": [
        "ORIGINAL",
        "PRIMARY",
        "M",
        "MB",
        "ND",
        "MOSAIC"
],
      "ImagedNucleus": "1H",
      "ImagingFrequency": 123.258874,
      "InPlanePhaseEncodingDirection": "COL",
      "MRAcquisitionType": "2D",
      "MagneticFieldStrength": 3.0,
      "Manufacturer": "SIEMENS",
      "ManufacturerModelName": "Prisma_fit",
      "Modality": "MR",
      "NumberOfAverages": 1.0,
      "NumberOfPhaseEncodingSteps": 104,
      "PercentPhaseFieldOfView": 100.0,
      "PercentSampling": 100.0,
      "PerformedProcedureStepStartTime": "171544.086000",
      "PhotometricInterpretation": "MONOCHROME2",
      "PixelBandwidth": 2290.0,
      "PixelRepresentation": 0,
      "PixelSpacing": [2.0, 2.0],
      "ProtocolName": "func_task-mario_run-04",
      "RepetitionTime": 1490.0,
      "Rows": 832,
      "SAR": 0.05640829210752,
      "SamplesPerPixel": 1,
      "ScanOptions": "FS",
      "ScanningSequence": "EP",
      "SequenceName": "epfid2d1_104",
      "SequenceVariant": [
        "SK",
        "SS"
],
      "SeriesDescription": "func_task-mario_run-04",
      "SeriesNumber": 19,
      "SeriesTime": "181145.734000",
      "SliceLocation": -40.502189761473,
      "SliceThickness": 2.0,
      "SmallestImagePixelValue": 0,
      "SoftwareVersions": "syngo MR E11",
      "SpacingBetweenSlices": 2.0000000408128,
      "SpecificCharacterSet": "ISO_IR 100",
      "StudyID": "1",
      "StudyTime": "171544.010000",
      "TransmitCoilName": "Body",
      "VariableFlipAngleFlag": "N",
      "WindowCenterWidthExplanation": "Algo1",
      "dBdt": 0.0},
    "slices": {}
  },
  "time": {
    "samples": {
      "AcquisitionNumber": [1, 2, 3, 4, 5, 6, 7, 8, 9, 10, 11, 12, 13, 14, 15, 16, 17, 18, 19, 20, 21, 22, 23, 24, 25, 26, 27, 28, 29, 30, 31, 32, 33, 34, 35, 36, 37, 38, 39, 40, 41, 42, 43, 44, 45, 46, 47, 48, 49, 50, 51, 52, 53, 54, 55, 56, 57, 58, 59, 60, 61, 62, 63, 64, 65, 66, 67, 68, 69, 70, 71, 72, 73, 74, 75, 76, 77, 78, 79, 80, 81, 82, 83, 84, 85, 86, 87, 88, 89, 90, 91, 92, 93, 94, 95, 96, 97, 98, 99, 100, 101, 102, 103, 104, 105, 106, 107, 108, 109, 110, 111, 112, 113, 114, 115, 116, 117, 118, 119, 120, 121, 122, 123, 124, 125, 126, 127, 128, 129, 130, 131, 132, 133, 134, 135, 136, 137, 138, 139, 140, 141, 142, 143, 144, 145, 146, 147, 148, 149, 150, 151, 152, 153, 154, 155, 156, 157, 158, 159, 160, 161, 162, 163, 164, 165, 166, 167, 168, 169, 170, 171, 172, 173, 174, 175, 176, 177, 178, 179, 180, 181, 182, 183, 184, 185, 186, 187, 188, 189, 190, 191, 192, 193, 194, 195, 196, 197, 198, 199, 200, 201, 202, 203, 204, 205, 206, 207, 208, 209, 210, 211, 212, 213, 214, 215, 216, 217, 218, 219, 220, 221, 222, 223, 224, 225, 226, 227, 228, 229, 230, 231, 232, 233, 234, 235, 236, 237, 238, 239, 240, 241, 242, 243, 244, 245, 246, 247, 248, 249, 250, 251, 252, 253, 254, 255, 256, 257, 258, 259, 260, 261, 262, 263, 264, 265, 266, 267, 268, 269, 270, 271, 272, 273, 274, 275, 276, 277, 278, 279, 280, 281, 282, 283, 284, 285, 286, 287, 288, 289, 290, 291, 292, 293, 294, 295, 296, 297, 298, 299, 300, 301, 302, 303, 304, 305, 306, 307, 308, 309, 310, 311, 312, 313, 314, 315, 316, 317, 318, 319, 320, 321, 322, 323, 324, 325, 326, 327, 328, 329, 330, 331, 332, 333, 334, 335, 336, 337, 338, 339, 340, 341, 342, 343, 344, 345, 346, 347, 348, 349, 350, 351, 352, 353, 354, 355, 356, 357, 358, 359, 360, 361, 362, 363, 364, 365, 366, 367, 368, 369, 370, 371, 372, 373, 374, 375, 376, 377, 378, 379, 380, 381, 382, 383, 384, 385, 386, 387, 388, 389, 390, 391, 392, 393, 394, 395, 396, 397, 398, 399, 400, 401, 402, 403, 404, 405, 406, 407, 408, 409, 410, 411, 412, 413, 414, 415, 416, 417, 418, 419, 420, 421, 422, 423, 424, 425, 426, 427, 428, 429, 430, 431, 432, 433, 434, 435, 436, 437, 438, 439, 440, 441, 442, 443, 444, 445, 446, 447, 448, 449, 450, 451, 452, 453],
      "AcquisitionTime": ["181013.225000", "181014.715000", "181016.205000", "181017.695000", "181019.185000", "181020.675000", "181022.165000", "181023.655000", "181025.145000", "181026.635000", "181028.125000", "181029.615000", "181031.105000", "181032.595000", "181034.085000", "181035.575000", "181037.065000", "181038.555000", "181040.045000", "181041.535000", "181043.025000", "181044.515000", "181046.005000", "181047.495000", "181048.985000", "181050.475000", "181051.965000", "181053.455000", "181054.945000", "181056.435000", "181057.925000", "181059.415000", "181100.905000", "181102.395000", "181103.885000", "181105.375000", "181106.865000", "181108.355000", "181109.845000", "181111.335000", "181112.825000", "181114.315000", "181115.805000", "181117.295000", "181118.785000", "181120.275000", "181121.765000", "181123.255000", "181124.745000", "181126.235000", "181127.725000", "181129.215000", "181130.705000", "181132.195000", "181133.685000", "181135.175000", "181136.665000", "181138.155000", "181139.645000", "181141.135000", "181142.625000", "181144.115000", "181145.605000", "181147.095000", "181148.585000", "181150.075000", "181151.565000", "181153.055000", "181154.545000", "181156.035000", "181157.525000", "181159.015000", "181200.505000", "181201.995000", "181203.485000", "181204.975000", "181206.465000", "181207.955000", "181209.445000", "181210.935000", "181212.425000", "181213.915000", "181215.405000", "181216.895000", "181218.385000", "181219.875000", "181221.365000", "181222.855000", "181224.345000", "181225.835000", "181227.325000", "181228.815000", "181230.305000", "181231.795000", "181233.285000", "181234.775000", "181236.265000", "181237.755000", "181239.245000", "181240.735000", "181242.225000", "181243.715000", "181245.205000", "181246.695000", "181248.185000", "181249.675000", "181251.165000", "181252.655000", "181254.145000", "181255.635000", "181257.125000", "181258.615000", "181300.105000", "181301.595000", "181303.085000", "181304.575000", "181306.065000", "181307.555000", "181309.045000", "181310.535000", "181312.025000", "181313.515000", "181315.005000", "181316.495000", "181317.985000", "181319.475000", "181320.965000", "181322.455000", "181323.945000", "181325.435000", "181326.925000", "181328.415000", "181329.905000", "181331.395000", "181332.885000", "181334.375000", "181335.865000", "181337.355000", "181338.845000", "181340.335000", "181341.825000", "181343.315000", "181344.805000", "181346.295000", "181347.785000", "181349.275000", "181350.765000", "181352.255000", "181353.745000", "181355.235000", "181356.725000", "181358.215000", "181359.705000", "181401.195000", "181402.685000", "181404.175000", "181405.665000", "181407.155000", "181408.645000", "181410.135000", "181411.625000", "181413.115000", "181414.605000", "181416.095000", "181417.585000", "181419.075000", "181420.565000", "181422.055000", "181423.545000", "181425.035000", "181426.525000", "181428.015000", "181429.505000", "181430.995000", "181432.485000", "181433.975000", "181435.465000", "181436.955000", "181438.445000", "181439.935000", "181441.425000", "181442.915000", "181444.405000", "181445.895000", "181447.385000", "181448.875000", "181450.365000", "181451.855000", "181453.345000", "181454.835000", "181456.325000", "181457.815000", "181459.305000", "181500.795000", "181502.285000", "181503.775000", "181505.265000", "181506.755000", "181508.245000", "181509.735000", "181511.225000", "181512.715000", "181514.205000", "181515.695000", "181517.185000", "181518.675000", "181520.165000", "181521.655000", "181523.145000", "181524.635000", "181526.125000", "181527.615000", "181529.105000", "181530.595000", "181532.085000", "181533.575000", "181535.065000", "181536.555000", "181538.045000", "181539.535000", "181541.025000", "181542.515000", "181544.005000", "181545.495000", "181546.985000", "181548.475000", "181549.965000", "181551.455000", "181552.945000", "181554.435000", "181555.925000", "181557.415000", "181558.905000", "181600.395000", "181601.885000", "181603.375000", "181604.865000", "181606.355000", "181607.845000", "181609.335000", "181610.825000", "181612.315000", "181613.805000", "181615.295000", "181616.785000", "181618.275000", "181619.765000", "181621.255000", "181622.745000", "181624.235000", "181625.725000", "181627.215000", "181628.705000", "181630.195000", "181631.685000", "181633.175000", "181634.665000", "181636.155000", "181637.645000", "181639.135000", "181640.625000", "181642.115000", "181643.605000", "181645.095000", "181646.585000", "181648.075000", "181649.565000", "181651.055000", "181652.545000", "181654.035000", "181655.525000", "181657.015000", "181658.505000", "181659.995000", "181701.485000", "181702.975000", "181704.465000", "181705.955000", "181707.445000", "181708.935000", "181710.425000", "181711.915000", "181713.405000", "181714.895000", "181716.385000", "181717.875000", "181719.365000", "181720.855000", "181722.345000", "181723.835000", "181725.325000", "181726.815000", "181728.305000", "181729.795000", "181731.285000", "181732.775000", "181734.265000", "181735.755000", "181737.245000", "181738.735000", "181740.225000", "181741.715000", "181743.205000", "181744.695000", "181746.185000", "181747.675000", "181749.165000", "181750.655000", "181752.145000", "181753.635000", "181755.125000", "181756.615000", "181758.105000", "181759.595000", "181801.085000", "181802.575000", "181804.065000", "181805.555000", "181807.045000", "181808.535000", "181810.025000", "181811.515000", "181813.005000", "181814.495000", "181815.985000", "181817.475000", "181818.965000", "181820.455000", "181821.945000", "181823.435000", "181824.925000", "181826.415000", "181827.905000", "181829.395000", "181830.885000", "181832.375000", "181833.865000", "181835.355000", "181836.845000", "181838.335000", "181839.825000", "181841.315000", "181842.805000", "181844.295000", "181845.785000", "181847.275000", "181848.765000", "181850.255000", "181851.745000", "181853.235000", "181854.725000", "181856.215000", "181857.705000", "181859.195000", "181900.685000", "181902.175000", "181903.665000", "181905.155000", "181906.645000", "181908.135000", "181909.625000", "181911.115000", "181912.605000", "181914.095000", "181915.585000", "181917.075000", "181918.565000", "181920.055000", "181921.545000", "181923.035000", "181924.525000", "181926.015000", "181927.505000", "181928.995000", "181930.485000", "181931.975000", "181933.465000", "181934.955000", "181936.445000", "181937.935000", "181939.425000", "181940.915000", "181942.405000", "181943.895000", "181945.385000", "181946.875000", "181948.365000", "181949.855000", "181951.345000", "181952.835000", "181954.325000", "181955.815000", "181957.305000", "181958.795000", "182000.285000", "182001.775000", "182003.265000", "182004.755000", "182006.245000", "182007.735000", "182009.225000", "182010.715000", "182012.205000", "182013.695000", "182015.185000", "182016.675000", "182018.165000", "182019.655000", "182021.145000", "182022.635000", "182024.125000", "182025.615000", "182027.105000", "182028.595000", "182030.085000", "182031.575000", "182033.065000", "182034.555000", "182036.045000", "182037.535000", "182039.025000", "182040.515000", "182042.005000", "182043.495000", "182044.985000", "182046.475000", "182047.965000", "182049.455000", "182050.945000", "182052.435000", "182053.925000", "182055.415000", "182056.905000", "182058.395000", "182059.885000", "182101.375000", "182102.865000", "182104.355000", "182105.845000", "182107.335000", "182108.825000", "182110.315000", "182111.805000", "182113.295000", "182114.785000", "182116.275000", "182117.765000", "182119.255000", "182120.745000", "182122.235000", "182123.725000", "182125.215000", "182126.705000"],
      "ContentTime": ["181145.737000", "181145.741000", "181145.744000", "181145.747000", "181145.750000", "181145.754000", "181145.757000", "181145.761000", "181145.764000", "181145.767000", "181145.770000", "181145.774000", "181145.777000", "181145.780000", "181145.792000", "181145.795000", "181145.798000", "181145.802000", "181145.805000", "181145.808000", "181145.811000", "181145.815000", "181145.818000", "181145.827000", "181145.830000", "181145.834000", "181145.837000", "181145.840000", "181145.844000", "181145.847000", "181145.850000", "181145.853000", "181145.857000", "181145.860000", "181145.863000", "181145.866000", "181145.870000", "181145.873000", "181205.690000", "181205.694000", "181205.697000", "181205.700000", "181205.704000", "181205.707000", "181205.710000", "181205.714000", "181205.717000", "181205.720000", "181205.723000", "181205.727000", "181205.730000", "181205.733000", "181205.736000", "181205.740000", "181205.743000", "181205.746000", "181205.750000", "181205.753000", "181225.690000", "181225.694000", "181225.697000", "181225.700000", "181225.703000", "181225.707000", "181225.710000", "181225.713000", "181225.717000", "181225.720000", "181225.723000", "181225.726000", "181225.730000", "181225.733000", "181225.736000", "181225.739000", "181225.743000", "181225.746000", "181225.749000", "181225.753000", "181225.756000", "181245.690000", "181245.694000", "181245.697000", "181245.700000", "181245.704000", "181245.707000", "181245.710000", "181245.713000", "181245.717000", "181245.720000", "181245.723000", "181245.726000", "181245.730000", "181245.733000", "181245.736000", "181245.740000", "181245.743000", "181245.747000", "181245.750000", "181245.753000", "181325.690000", "181325.694000", "181325.697000", "181325.700000", "181325.704000", "181325.707000", "181325.710000", "181325.732000", "181325.735000", "181325.738000", "181325.742000", "181325.745000", "181325.748000", "181325.751000", "181325.755000", "181325.758000", "181325.762000", "181325.765000", "181325.768000", "181325.772000", "181325.775000", "181325.778000", "181325.782000", "181325.785000", "181325.788000", "181325.792000", "181325.795000", "181325.798000", "181325.801000", "181405.690000", "181405.694000", "181405.697000", "181405.700000", "181405.704000", "181405.707000", "181405.710000", "181405.714000", "181405.717000", "181405.720000", "181405.723000", "181405.727000", "181405.730000", "181405.733000", "181405.736000", "181405.740000", "181405.743000", "181405.746000", "181405.750000", "181405.753000", "181405.756000", "181405.760000", "181405.763000", "181405.766000", "181405.770000", "181405.773000", "181405.776000", "181445.690000", "181445.694000", "181445.697000", "181445.701000", "181445.704000", "181445.707000", "181445.711000", "181445.714000", "181445.717000", "181445.721000", "181445.724000", "181445.727000", "181445.731000", "181445.734000", "181445.737000", "181445.741000", "181445.744000", "181445.747000", "181445.751000", "181445.754000", "181445.758000", "181445.761000", "181445.764000", "181445.768000", "181445.771000", "181445.774000", "181445.778000", "181525.690000", "181525.694000", "181525.697000", "181525.701000", "181525.704000", "181525.707000", "181525.711000", "181525.714000", "181525.717000", "181525.721000", "181525.724000", "181525.727000", "181525.731000", "181525.735000", "181525.739000", "181525.742000", "181525.746000", "181525.751000", "181525.754000", "181525.758000", "181525.762000", "181525.765000", "181525.768000", "181525.772000", "181525.775000", "181525.778000", "181605.690000", "181605.694000", "181605.697000", "181605.700000", "181605.704000", "181605.707000", "181605.711000", "181605.714000", "181605.717000", "181605.721000", "181605.724000", "181605.728000", "181605.731000", "181605.735000", "181605.738000", "181605.741000", "181605.744000", "181605.748000", "181605.751000", "181605.754000", "181605.758000", "181605.761000", "181605.765000", "181605.768000", "181605.771000", "181605.775000", "181605.778000", "181645.690000", "181645.694000", "181645.697000", "181645.701000", "181645.704000", "181645.707000", "181645.711000", "181645.714000", "181645.717000", "181645.721000", "181645.724000", "181645.727000", "181645.731000", "181645.734000", "181645.737000", "181645.741000", "181645.744000", "181645.747000", "181645.751000", "181645.754000", "181645.758000", "181645.761000", "181645.764000", "181645.768000", "181645.771000", "181645.774000", "181645.778000", "181725.690000", "181725.694000", "181725.697000", "181725.701000", "181725.704000", "181725.707000", "181725.711000", "181725.714000", "181725.717000", "181725.721000", "181725.724000", "181725.728000", "181725.731000", "181725.735000", "181725.738000", "181725.741000", "181725.744000", "181725.748000", "181725.751000", "181725.755000", "181725.758000", "181725.761000", "181725.764000", "181725.768000", "181725.771000", "181725.774000", "181725.778000", "181805.690000", "181805.694000", "181805.697000", "181805.701000", "181805.704000", "181805.707000", "181805.711000", "181805.714000", "181805.717000", "181805.721000", "181805.724000", "181805.747000", "181805.750000", "181805.753000", "181805.757000", "181805.760000", "181805.763000", "181805.766000", "181805.770000", "181805.773000", "181805.777000", "181805.780000", "181805.783000", "181805.786000", "181805.790000", "181805.793000", "181805.796000", "181845.690000", "181845.694000", "181845.697000", "181845.701000", "181845.704000", "181845.708000", "181845.711000", "181845.714000", "181845.718000", "181845.721000", "181845.724000", "181845.728000", "181845.731000", "181845.734000", "181845.738000", "181845.741000", "181845.744000", "181845.748000", "181845.751000", "181845.754000", "181845.758000", "181845.761000", "181845.764000", "181845.768000", "181845.771000", "181845.775000", "181845.778000", "181925.690000", "181925.694000", "181925.697000", "181925.701000", "181925.704000", "181925.707000", "181925.710000", "181925.714000", "181925.717000", "181925.720000", "181925.724000", "181925.727000", "181925.730000", "181925.734000", "181925.737000", "181925.740000", "181925.744000", "181925.747000", "181925.751000", "181925.754000", "181925.757000", "181925.760000", "181925.764000", "181925.767000", "181925.770000", "181925.774000", "181925.777000", "182005.690000", "182005.694000", "182005.697000", "182005.701000", "182005.704000", "182005.707000", "182005.711000", "182005.714000", "182005.717000", "182005.720000", "182005.725000", "182005.728000", "182005.732000", "182005.735000", "182005.738000", "182005.741000", "182005.745000", "182005.748000", "182005.751000", "182005.755000", "182005.758000", "182005.761000", "182005.765000", "182005.768000", "182005.771000", "182005.775000", "182045.690000", "182045.694000", "182045.697000", "182045.700000", "182045.704000", "182045.707000", "182045.710000", "182045.714000", "182045.717000", "182045.720000", "182045.723000", "182045.727000", "182045.730000", "182045.733000", "182045.737000", "182045.740000", "182045.743000", "182045.747000", "182045.750000", "182045.753000", "182045.756000", "182045.760000", "182045.763000", "182045.766000", "182045.770000", "182045.773000", "182045.776000", "182125.690000", "182125.694000", "182125.697000", "182125.701000", "182125.704000", "182125.707000", "182125.711000", "182125.714000", "182125.717000", "182125.720000", "182125.724000", "182125.738000", "182125.741000", "182125.744000", "182125.748000", "182125.751000", "182125.755000", "182125.758000", "182125.761000", "182125.765000", "182125.768000", "182125.771000", "182125.775000", "182125.778000", "182125.781000", "182125.784000", "182125.788000", "182129.358000", "182129.362000", "182129.365000"],
