{
  "AcquisitionMatrixPE": 104,
  "AcquisitionNumber": 1,
  "AcquisitionTime": "16:23:23.855000",
  "BandwidthPerPixelPhaseEncode": 17.17,
  "BaseResolution": 104,
  "BodyPartExamined": "BRAIN",
  "CoilCombinationMethod": "Sum of Squares",
  "ConsistencyInfo": "N4_VE11C_LATEST_20160120",
  "ConversionSoftware": "dcm2niix",
  "ConversionSoftwareVersion": "v1.0.20211006",
  "DerivedVendorReportedEchoSpacing": 0.000560011,
  "DeviceSerialNumber": "167006",
  "DwellTime": 2.1e-06,
  "EchoTime": 0.037,
  "EchoTime1": 0.037,
  "EchoTime2": 0.001,
  "EchoTrainLength": 104,
  "EffectiveEchoSpacing": 0.000560011,
  "FlipAngle": 52,
  "HeudiconvVersion": "0.10.0",
  "ImageComments": "Unaliased MB4/PE3/LB",
  "ImageOrientationPatientDICOM": [0.996835, 0.0720271, 0.0336551, -0.0581754, 0.949376, -0.308707],
  "ImageOrientationText": "Tra>Cor(-17.8)>Sag(3.1)",
  "ImageType": [
    "ORIGINAL",
    "PRIMARY",
    "P",
    "MB",
    "ND",
    "MOSAIC",
    "PHASE"
],
  "ImagingFrequency": 123.259,
  "InPlanePhaseEncodingDirectionDICOM": "COL",
  "InstitutionAddress": "Chemin Queen-Mary 4565,Montreal,District,CA,H3W 1W5",
  "InstitutionName": "IUGM",
  "InstitutionalDepartmentName": "Department",
  "MRAcquisitionType": "2D",
  "MagneticFieldStrength": 3,
  "Manufacturer": "Siemens",
  "ManufacturersModelName": "Prisma_fit",
  "MatrixCoilMode": "SENSE",
  "Modality": "MR",
  "MultibandAccelerationFactor": 4,
  "PartialFourier": 1,
  "PatientPosition": "HFS",
  "PercentPhaseFOV": 100,
  "PercentSampling": 100,
  "PhaseEncodingDirection": "j",
  "PhaseEncodingSteps": 104,
  "PhaseResolution": 1,
  "PixelBandwidth": 2290,
  "ProcedureStepDescription": "games^mario",
  "ProtocolName": "func_task-mario_run-04",
  "PulseSequenceDetails": "%CustomerSeq%\\cmrr_mbep2d_bold",
  "ReceiveCoilActiveElements": "HC1-7;NC1,2",
  "ReceiveCoilName": "HeadNeck_64",
  "ReconMatrixPE": 104,
  "RepetitionTime": 1.49,
  "SAR": 0.0658859,
  "ScanOptions": "FS",
  "ScanningSequence": "EP",
  "SequenceName": "epfid2d1_104",
  "SequenceVariant": "SK\\SS",
  "SeriesDescription": "func_task-mario_run-04",
  "SeriesNumber": 20,
  "ShimSetting": [640, -7191, -8782, 666, 95, 14, 6, -27],
  "SliceThickness": 2,
  "SliceTiming": [0, 0.785, 0.0975, 0.8825, 0.195, 0.98, 0.295, 1.0775, 0.3925, 1.175, 0.49, 1.275, 0.5875, 1.3725, 0.685, 0, 0.785, 0.0975, 0.8825, 0.195, 0.98, 0.295, 1.0775, 0.3925, 1.175, 0.49, 1.275, 0.5875, 1.3725, 0.685, 0, 0.785, 0.0975, 0.8825, 0.195, 0.98, 0.295, 1.0775, 0.3925, 1.175, 0.49, 1.275, 0.5875, 1.3725, 0.685, 0, 0.785, 0.0975, 0.8825, 0.195, 0.98, 0.295, 1.0775, 0.3925, 1.175, 0.49, 1.275, 0.5875, 1.3725, 0.685],
  "SoftwareVersions": "syngo MR E11",
  "SpacingBetweenSlices": 2,
  "StationName": "MRC35049",
  "TaskName": "mario",
  "TotalReadoutTime": 0.0576811,
  "TxRefAmp": 307.723,
  "WipMemBlock": "a3e92113-02b7-4c8c-bcc8-b9a8981025ac||Sequence: R016 ve11c/master r/e634e98; Dec 19 2017 11:00:25 by eja",
  "dcmmeta_affine": [
    [-1.9936693906784058, -0.11635076254606247, 0.1083732396364212, 109.2824478149414],
    [-0.14405417442321777, 1.8987526893615723, -0.6115444898605347, -55.023990631103516],
    [0.0673101544380188, 0.6174145936965942, 1.9011229276657104, -52.008209228515625],
    [0.0, 0.0, 0.0, 1.0]
],
  "dcmmeta_reorient_transform": [
    [0.0, -1.0, 0.0, 103.0],
    [1.0, 0.0, 0.0, 0.0],
    [0.0, 0.0, 1.0, 0.0],
    [0.0, 0.0, 0.0, 1.0]
],
  "dcmmeta_shape": [104, 104, 60, 436],
  "dcmmeta_slice_dim": 2,
  "dcmmeta_version": 0.6,
  "global": {
    "const": {
      "AcquisitionMatrix": [104, 0, 0, 104],
      "AngioFlag": "N",
      "BitsAllocated": 16,
      "BitsStored": 16,
      "BodyPartExamined": "BRAIN",
      "Columns": 832,
      "EchoNumbers": 1,
      "EchoTime": 37.0,
      "EchoTrainLength": 104,
      "FlipAngle": 52.0,
      "HighBit": 15,
      "ImageOrientationPatient": [0.99683470790025, 0.0720270840431, 0.03365507821514, -0.0581753825465, 0.94937633415941, -0.3087073063658],
      "ImagePositionPatient": [-780.64230788109, -884.12922292398, 211.82351821341],
      "ImageType": [
        "ORIGINAL",
        "PRIMARY",
        "P",
        "MB",
        "ND",
        "MOSAIC"
],
      "ImagedNucleus": "1H",
      "ImagingFrequency": 123.258854,
      "InPlanePhaseEncodingDirection": "COL",
      "LargestImagePixelValue": 4095,
      "MRAcquisitionType": "2D",
      "MagneticFieldStrength": 3.0,
      "Manufacturer": "SIEMENS",
      "ManufacturerModelName": "Prisma_fit",
      "Modality": "MR",
      "NumberOfAverages": 1.0,
      "NumberOfPhaseEncodingSteps": 104,
      "PercentPhaseFieldOfView": 100.0,
      "PercentSampling": 100.0,
      "PerformedProcedureStepStartTime": "152258.371000",
      "PhotometricInterpretation": "MONOCHROME2",
      "PixelBandwidth": 2290.0,
      "PixelRepresentation": 0,
      "PixelSpacing": [2.0, 2.0],
      "ProtocolName": "func_task-mario_run-04",
      "RepetitionTime": 1490.0,
      "RescaleIntercept": -4096.0,
      "RescaleSlope": 2.0,
      "RescaleType": "US",
      "Rows": 832,
      "SAR": 0.06588594558417,
      "SamplesPerPixel": 1,
      "ScanOptions": "FS",
      "ScanningSequence": "EP",
      "SequenceName": "epfid2d1_104",
      "SequenceVariant": [
        "SK",
        "SS"
],
      "SeriesDescription": "func_task-mario_run-04",
      "SeriesNumber": 20,
      "SeriesTime": "162443.910000",
      "SliceLocation": -26.690543719704,
      "SliceThickness": 2.0,
      "SmallestImagePixelValue": 0,
      "SoftwareVersions": "syngo MR E11",
      "SpacingBetweenSlices": 1.9999999423349,
      "SpecificCharacterSet": "ISO_IR 100",
      "StudyID": "1",
      "StudyTime": "152258.234000",
      "TransmitCoilName": "Body",
      "VariableFlipAngleFlag": "N",
      "WindowCenterWidthExplanation": "Algo1",
      "dBdt": 0.0},
    "slices": {}
  },
  "time": {
    "samples": {
      "AcquisitionNumber": [1, 2, 3, 4, 5, 6, 7, 8, 9, 10, 11, 12, 13, 14, 15, 16, 17, 18, 19, 20, 21, 22, 23, 24, 25, 26, 27, 28, 29, 30, 31, 32, 33, 34, 35, 36, 37, 38, 39, 40, 41, 42, 43, 44, 45, 46, 47, 48, 49, 50, 51, 52, 53, 54, 55, 56, 57, 58, 59, 60, 61, 62, 63, 64, 65, 66, 67, 68, 69, 70, 71, 72, 73, 74, 75, 76, 77, 78, 79, 80, 81, 82, 83, 84, 85, 86, 87, 88, 89, 90, 91, 92, 93, 94, 95, 96, 97, 98, 99, 100, 101, 102, 103, 104, 105, 106, 107, 108, 109, 110, 111, 112, 113, 114, 115, 116, 117, 118, 119, 120, 121, 122, 123, 124, 125, 126, 127, 128, 129, 130, 131, 132, 133, 134, 135, 136, 137, 138, 139, 140, 141, 142, 143, 144, 145, 146, 147, 148, 149, 150, 151, 152, 153, 154, 155, 156, 157, 158, 159, 160, 161, 162, 163, 164, 165, 166, 167, 168, 169, 170, 171, 172, 173, 174, 175, 176, 177, 178, 179, 180, 181, 182, 183, 184, 185, 186, 187, 188, 189, 190, 191, 192, 193, 194, 195, 196, 197, 198, 199, 200, 201, 202, 203, 204, 205, 206, 207, 208, 209, 210, 211, 212, 213, 214, 215, 216, 217, 218, 219, 220, 221, 222, 223, 224, 225, 226, 227, 228, 229, 230, 231, 232, 233, 234, 235, 236, 237, 238, 239, 240, 241, 242, 243, 244, 245, 246, 247, 248, 249, 250, 251, 252, 253, 254, 255, 256, 257, 258, 259, 260, 261, 262, 263, 264, 265, 266, 267, 268, 269, 270, 271, 272, 273, 274, 275, 276, 277, 278, 279, 280, 281, 282, 283, 284, 285, 286, 287, 288, 289, 290, 291, 292, 293, 294, 295, 296, 297, 298, 299, 300, 301, 302, 303, 304, 305, 306, 307, 308, 309, 310, 311, 312, 313, 314, 315, 316, 317, 318, 319, 320, 321, 322, 323, 324, 325, 326, 327, 328, 329, 330, 331, 332, 333, 334, 335, 336, 337, 338, 339, 340, 341, 342, 343, 344, 345, 346, 347, 348, 349, 350, 351, 352, 353, 354, 355, 356, 357, 358, 359, 360, 361, 362, 363, 364, 365, 366, 367, 368, 369, 370, 371, 372, 373, 374, 375, 376, 377, 378, 379, 380, 381, 382, 383, 384, 385, 386, 387, 388, 389, 390, 391, 392, 393, 394, 395, 396, 397, 398, 399, 400, 401, 402, 403, 404, 405, 406, 407, 408, 409, 410, 411, 412, 413, 414, 415, 416, 417, 418, 419, 420, 421, 422, 423, 424, 425, 426, 427, 428, 429, 430, 431, 432, 433, 434, 435, 436],
      "AcquisitionTime": ["162323.855000", "162325.345000", "162326.835000", "162328.325000", "162329.815000", "162331.305000", "162332.795000", "162334.285000", "162335.775000", "162337.265000", "162338.755000", "162340.245000", "162341.735000", "162343.225000", "162344.715000", "162346.205000", "162347.695000", "162349.185000", "162350.675000", "162352.165000", "162353.655000", "162355.145000", "162356.635000", "162358.125000", "162359.615000", "162401.105000", "162402.595000", "162404.085000", "162405.575000", "162407.065000", "162408.555000", "162410.045000", "162411.535000", "162413.025000", "162414.515000", "162416.005000", "162417.495000", "162418.985000", "162420.475000", "162421.965000", "162423.455000", "162424.945000", "162426.435000", "162427.925000", "162429.415000", "162430.905000", "162432.395000", "162433.885000", "162435.375000", "162436.865000", "162438.355000", "162439.845000", "162441.335000", "162442.825000", "162444.315000", "162445.805000", "162447.295000", "162448.785000", "162450.275000", "162451.765000", "162453.255000", "162454.745000", "162456.235000", "162457.725000", "162459.215000", "162500.705000", "162502.195000", "162503.685000", "162505.175000", "162506.665000", "162508.155000", "162509.645000", "162511.135000", "162512.625000", "162514.115000", "162515.605000", "162517.095000", "162518.585000", "162520.075000", "162521.565000", "162523.055000", "162524.545000", "162526.035000", "162527.525000", "162529.015000", "162530.505000", "162531.995000", "162533.485000", "162534.975000", "162536.465000", "162537.955000", "162539.445000", "162540.935000", "162542.425000", "162543.915000", "162545.405000", "162546.895000", "162548.385000", "162549.875000", "162551.365000", "162552.855000", "162554.345000", "162555.835000", "162557.325000", "162558.815000", "162600.305000", "162601.795000", "162603.285000", "162604.775000", "162606.265000", "162607.755000", "162609.245000", "162610.735000", "162612.225000", "162613.715000", "162615.205000", "162616.695000", "162618.185000", "162619.675000", "162621.165000", "162622.655000", "162624.145000", "162625.635000", "162627.125000", "162628.615000", "162630.105000", "162631.595000", "162633.085000", "162634.575000", "162636.065000", "162637.555000", "162639.045000", "162640.535000", "162642.025000", "162643.515000", "162645.005000", "162646.495000", "162647.985000", "162649.475000", "162650.965000", "162652.455000", "162653.945000", "162655.435000", "162656.925000", "162658.415000", "162659.905000", "162701.395000", "162702.885000", "162704.375000", "162705.865000", "162707.355000", "162708.845000", "162710.335000", "162711.825000", "162713.315000", "162714.805000", "162716.295000", "162717.785000", "162719.275000", "162720.765000", "162722.255000", "162723.745000", "162725.235000", "162726.725000", "162728.215000", "162729.705000", "162731.195000", "162732.685000", "162734.175000", "162735.665000", "162737.155000", "162738.645000", "162740.135000", "162741.625000", "162743.115000", "162744.605000", "162746.095000", "162747.585000", "162749.075000", "162750.565000", "162752.055000", "162753.545000", "162755.035000", "162756.525000", "162758.015000", "162759.505000", "162800.995000", "162802.485000", "162803.975000", "162805.465000", "162806.955000", "162808.445000", "162809.935000", "162811.425000", "162812.915000", "162814.405000", "162815.895000", "162817.385000", "162818.875000", "162820.365000", "162821.855000", "162823.345000", "162824.835000", "162826.325000", "162827.815000", "162829.305000", "162830.795000", "162832.285000", "162833.775000", "162835.265000", "162836.755000", "162838.245000", "162839.735000", "162841.225000", "162842.715000", "162844.205000", "162845.695000", "162847.185000", "162848.675000", "162850.165000", "162851.655000", "162853.145000", "162854.635000", "162856.125000", "162857.615000", "162859.105000", "162900.595000", "162902.085000", "162903.575000", "162905.065000", "162906.555000", "162908.045000", "162909.535000", "162911.025000", "162912.515000", "162914.005000", "162915.495000", "162916.985000", "162918.475000", "162919.965000", "162921.455000", "162922.945000", "162924.435000", "162925.925000", "162927.415000", "162928.905000", "162930.395000", "162931.885000", "162933.375000", "162934.865000", "162936.355000", "162937.845000", "162939.335000", "162940.825000", "162942.315000", "162943.805000", "162945.295000", "162946.785000", "162948.275000", "162949.765000", "162951.255000", "162952.745000", "162954.235000", "162955.725000", "162957.215000", "162958.705000", "163000.195000", "163001.685000", "163003.175000", "163004.665000", "163006.155000", "163007.645000", "163009.135000", "163010.625000", "163012.115000", "163013.605000", "163015.095000", "163016.585000", "163018.075000", "163019.565000", "163021.055000", "163022.545000", "163024.035000", "163025.525000", "163027.015000", "163028.505000", "163029.995000", "163031.485000", "163032.975000", "163034.465000", "163035.955000", "163037.445000", "163038.935000", "163040.425000", "163041.915000", "163043.405000", "163044.895000", "163046.385000", "163047.875000", "163049.365000", "163050.855000", "163052.345000", "163053.835000", "163055.325000", "163056.815000", "163058.305000", "163059.795000", "163101.285000", "163102.775000", "163104.265000", "163105.755000", "163107.245000", "163108.735000", "163110.225000", "163111.715000", "163113.205000", "163114.695000", "163116.185000", "163117.675000", "163119.165000", "163120.655000", "163122.145000", "163123.635000", "163125.125000", "163126.615000", "163128.105000", "163129.595000", "163131.085000", "163132.575000", "163134.065000", "163135.555000", "163137.045000", "163138.535000", "163140.025000", "163141.515000", "163143.005000", "163144.495000", "163145.985000", "163147.475000", "163148.965000", "163150.455000", "163151.945000", "163153.435000", "163154.925000", "163156.415000", "163157.905000", "163159.395000", "163200.885000", "163202.375000", "163203.865000", "163205.355000", "163206.845000", "163208.335000", "163209.825000", "163211.315000", "163212.805000", "163214.295000", "163215.785000", "163217.275000", "163218.765000", "163220.255000", "163221.745000", "163223.235000", "163224.725000", "163226.215000", "163227.705000", "163229.195000", "163230.685000", "163232.175000", "163233.665000", "163235.155000", "163236.645000", "163238.135000", "163239.625000", "163241.115000", "163242.605000", "163244.095000", "163245.585000", "163247.075000", "163248.565000", "163250.055000", "163251.545000", "163253.035000", "163254.525000", "163256.015000", "163257.505000", "163258.995000", "163300.485000", "163301.975000", "163303.465000", "163304.955000", "163306.445000", "163307.935000", "163309.425000", "163310.915000", "163312.405000", "163313.895000", "163315.385000", "163316.875000", "163318.365000", "163319.855000", "163321.345000", "163322.835000", "163324.325000", "163325.815000", "163327.305000", "163328.795000", "163330.285000", "163331.775000", "163333.265000", "163334.755000", "163336.245000", "163337.735000", "163339.225000", "163340.715000", "163342.205000", "163343.695000", "163345.185000", "163346.675000", "163348.165000", "163349.655000", "163351.145000", "163352.635000", "163354.125000", "163355.615000", "163357.105000", "163358.595000", "163400.085000", "163401.575000", "163403.065000", "163404.555000", "163406.045000", "163407.535000", "163409.025000", "163410.515000", "163412.005000"],
      "ContentTime": ["162443.912000", "162443.915000", "162443.917000", "162443.920000", "162443.922000", "162443.925000", "162443.927000", "162443.930000", "162443.932000", "162443.935000", "162443.937000", "162443.940000", "162443.942000", "162443.945000", "162443.947000", "162443.950000", "162443.952000", "162443.955000", "162443.957000", "162443.960000", "162443.962000", "162443.970000", "162443.973000", "162443.975000", "162443.978000", "162443.980000", "162443.983000", "162503.842000", "162503.845000", "162503.847000", "162503.850000", "162503.852000", "162503.854000", "162503.857000", "162503.859000", "162503.862000", "162503.864000", "162503.867000", "162503.869000", "162503.872000", "162503.874000", "162503.877000", "162503.879000", "162503.882000", "162503.884000", "162503.887000", "162503.889000", "162524.314000", "162524.317000", "162524.319000", "162524.322000", "162524.324000", "162524.327000", "162524.329000", "162524.332000", "162524.334000", "162524.337000", "162524.354000", "162524.357000", "162524.359000", "162524.361000", "162524.364000", "162524.366000", "162524.369000", "162524.371000", "162524.374000", "162524.376000", "162543.839000", "162543.841000", "162543.844000", "162543.852000", "162543.854000", "162543.857000", "162543.859000", "162543.861000", "162543.864000", "162543.866000", "162543.869000", "162543.871000", "162543.874000", "162543.876000", "162543.879000", "162543.881000", "162543.884000", "162543.886000", "162543.889000", "162543.891000", "162543.894000", "162623.893000", "162623.895000", "162623.898000", "162623.900000", "162623.903000", "162623.905000", "162623.908000", "162623.910000", "162623.913000", "162623.915000", "162623.918000", "162623.920000", "162623.923000", "162623.925000", "162623.928000", "162623.930000", "162623.938000", "162623.941000", "162623.943000", "162623.946000", "162623.948000", "162623.951000", "162623.953000", "162623.956000", "162623.964000", "162623.967000", "162623.969000", "162623.972000", "162623.974000", "162623.977000", "162623.979000", "162623.982000", "162703.871000", "162703.874000", "162703.877000", "162703.879000", "162703.882000", "162703.884000", "162703.887000", "162703.889000", "162703.892000", "162703.894000", "162703.897000", "162703.899000", "162703.902000", "162703.904000", "162703.907000", "162703.909000", "162703.912000", "162703.914000", "162703.917000", "162703.919000", "162703.922000", "162703.924000", "162703.927000", "162703.929000", "162703.932000", "162703.935000", "162743.873000", "162743.876000", "162743.879000", "162743.881000", "162743.884000", "162743.886000", "162743.889000", "162743.891000", "162743.894000", "162743.896000", "162743.899000", "162743.901000", "162743.904000", "162743.906000", "162743.909000", "162743.911000", "162743.914000", "162743.916000", "162743.919000", "162743.921000", "162743.924000", "162743.926000", "162743.987000", "162743.990000", "162743.992000", "162743.995000", "162743.997000", "162823.875000", "162823.878000", "162823.881000", "162823.883000", "162823.886000", "162823.888000", "162823.891000", "162823.893000", "162823.896000", "162823.898000", "162823.901000", "162823.904000", "162823.906000", "162823.908000", "162823.911000", "162823.913000", "162823.916000", "162823.918000", "162823.921000", "162823.923000", "162823.926000", "162823.928000", "162823.931000", "162823.934000", "162823.936000", "162823.939000", "162823.941000", "162903.889000", "162903.891000", "162903.894000", "162903.896000", "162903.899000", "162903.901000", "162903.904000", "162903.906000", "162903.909000", "162903.911000", "162903.914000", "162903.916000", "162903.919000", "162903.921000", "162903.924000", "162903.926000", "162903.929000", "162903.931000", "162903.934000", "162903.937000", "162903.939000", "162903.942000", "162903.944000", "162903.947000", "162903.949000", "162903.952000", "162903.954000", "162943.880000", "162943.883000", "162943.885000", "162943.888000", "162943.891000", "162943.893000", "162943.896000", "162943.898000", "162943.901000", "162943.903000", "162943.906000", "162943.908000", "162943.911000", "162943.913000", "162943.916000", "162943.918000", "162943.921000", "162943.923000", "162943.926000", "162943.928000", "162943.931000", "162943.933000", "162943.936000", "162943.938000", "162943.941000", "162943.943000", "162943.946000", "163023.871000", "163023.874000", "163023.876000", "163023.879000", "163023.881000", "163023.884000", "163023.886000", "163023.889000", "163023.891000", "163023.894000", "163023.896000", "163023.899000", "163023.901000", "163023.904000", "163023.906000", "163023.909000", "163023.911000", "163023.914000", "163023.916000", "163023.919000", "163023.921000", "163023.924000", "163023.926000", "163023.929000", "163023.932000", "163023.934000", "163023.936000", "163103.855000", "163103.858000", "163103.861000", "163103.863000", "163103.866000", "163103.868000", "163103.871000", "163103.873000", "163103.876000", "163103.878000", "163103.881000", "163103.883000", "163103.886000", "163103.888000", "163103.891000", "163103.893000", "163103.896000", "163103.898000", "163103.901000", "163103.903000", "163103.906000", "163103.908000", "163103.911000", "163103.914000", "163103.916000", "163103.918000", "163123.808000", "163123.811000", "163123.814000", "163123.816000", "163123.819000", "163123.821000", "163123.824000", "163123.826000", "163123.829000", "163123.831000", "163123.834000", "163123.836000", "163123.839000", "163123.841000", "163203.869000", "163203.872000", "163203.874000", "163203.877000", "163203.879000", "163203.882000", "163203.884000", "163203.887000", "163203.889000", "163203.892000", "163203.894000", "163203.897000", "163203.899000", "163203.902000", "163203.904000", "163203.907000", "163203.909000", "163203.912000", "163203.914000", "163203.921000", "163203.924000", "163203.926000", "163203.929000", "163203.931000", "163203.934000", "163203.936000", "163203.939000", "163243.871000", "163243.874000", "163243.876000", "163243.879000", "163243.881000", "163243.884000", "163243.886000", "163243.889000", "163243.891000", "163243.894000", "163243.896000", "163243.899000", "163243.901000", "163243.904000", "163243.906000", "163243.909000", "163243.911000", "163243.914000", "163243.916000", "163243.919000", "163243.921000", "163243.924000", "163243.926000", "163243.929000", "163243.931000", "163243.934000", "163243.936000", "163323.873000", "163323.876000", "163323.879000", "163323.881000", "163323.890000", "163323.893000", "163323.895000", "163323.898000", "163323.901000", "163323.903000", "163323.906000", "163323.908000", "163323.911000", "163323.913000", "163323.916000", "163323.928000", "163323.930000", "163323.933000", "163323.935000", "163323.938000", "163323.941000", "163323.943000", "163323.946000", "163323.948000", "163323.951000", "163323.953000", "163403.865000", "163403.867000", "163403.870000", "163403.872000", "163403.875000", "163403.877000", "163403.880000", "163403.882000", "163403.885000", "163403.887000", "163403.890000", "163403.892000", "163403.895000", "163403.898000", "163403.901000", "163403.904000", "163403.906000", "163403.909000", "163403.915000", "163403.917000", "163403.920000", "163403.922000", "163403.925000", "163403.927000", "163403.930000", "163403.932000", "163403.935000", "163415.739000", "163415.741000", "163415.744000", "163415.747000", "163415.749000", "163415.752000", "163415.754000", "163415.757000"],
