{
  "AcquisitionMatrixPE": 104,
  "AcquisitionNumber": 1,
  "AcquisitionTime": "16:10:26.632500",
  "BandwidthPerPixelPhaseEncode": 17.17,
  "BaseResolution": 104,
  "BodyPartExamined": "BRAIN",
  "CoilCombinationMethod": "Sum of Squares",
  "ConsistencyInfo": "N4_VE11C_LATEST_20160120",
  "ConversionSoftware": "dcm2niix",
  "ConversionSoftwareVersion": "v1.0.20211006",
  "DerivedVendorReportedEchoSpacing": 0.000560011,
  "DeviceSerialNumber": "167006",
  "DwellTime": 2.1e-06,
  "EchoTime": 0.037,
  "EchoTime1": 0.037,
  "EchoTime2": 0.001,
  "EchoTrainLength": 104,
  "EffectiveEchoSpacing": 0.000560011,
  "FlipAngle": 52,
  "HeudiconvVersion": "0.10.0",
  "ImageComments": "Unaliased MB4/PE3/LB",
  "ImageOrientationPatientDICOM": [0.996835, 0.0720271, 0.0336551, -0.0581754, 0.949376, -0.308707],
  "ImageOrientationText": "Tra>Cor(-17.8)>Sag(3.1)",
  "ImageType": [
    "ORIGINAL",
    "PRIMARY",
    "P",
    "MB",
    "ND",
    "MOSAIC",
    "PHASE"
],
  "ImagingFrequency": 123.259,
  "InPlanePhaseEncodingDirectionDICOM": "COL",
  "InstitutionAddress": "Chemin Queen-Mary 4565,Montreal,District,CA,H3W 1W5",
  "InstitutionName": "IUGM",
  "InstitutionalDepartmentName": "Department",
  "MRAcquisitionType": "2D",
  "MagneticFieldStrength": 3,
  "Manufacturer": "Siemens",
  "ManufacturersModelName": "Prisma_fit",
  "MatrixCoilMode": "SENSE",
  "Modality": "MR",
  "MultibandAccelerationFactor": 4,
  "PartialFourier": 1,
  "PatientPosition": "HFS",
  "PercentPhaseFOV": 100,
  "PercentSampling": 100,
  "PhaseEncodingDirection": "j",
  "PhaseEncodingSteps": 104,
  "PhaseResolution": 1,
  "PixelBandwidth": 2290,
  "ProcedureStepDescription": "games^mario",
  "ProtocolName": "func_task-mario_run-03",
  "PulseSequenceDetails": "%CustomerSeq%\\cmrr_mbep2d_bold",
  "ReceiveCoilActiveElements": "HC1-7;NC1,2",
  "ReceiveCoilName": "HeadNeck_64",
  "ReconMatrixPE": 104,
  "RepetitionTime": 1.49,
  "SAR": 0.0658859,
  "ScanOptions": "FS",
  "ScanningSequence": "EP",
  "SequenceName": "epfid2d1_104",
  "SequenceVariant": "SK\\SS",
  "SeriesDescription": "func_task-mario_run-03",
  "SeriesNumber": 17,
  "ShimSetting": [640, -7191, -8782, 666, 95, 14, 6, -27],
  "SliceThickness": 2,
  "SliceTiming": [0, 0.785, 0.0975, 0.8825, 0.195, 0.98, 0.295, 1.0775, 0.3925, 1.175, 0.49, 1.2725, 0.5875, 1.3725, 0.685, 0, 0.785, 0.0975, 0.8825, 0.195, 0.98, 0.295, 1.0775, 0.3925, 1.175, 0.49, 1.2725, 0.5875, 1.3725, 0.685, 0, 0.785, 0.0975, 0.8825, 0.195, 0.98, 0.295, 1.0775, 0.3925, 1.175, 0.49, 1.2725, 0.5875, 1.3725, 0.685, 0, 0.785, 0.0975, 0.8825, 0.195, 0.98, 0.295, 1.0775, 0.3925, 1.175, 0.49, 1.2725, 0.5875, 1.3725, 0.685],
  "SoftwareVersions": "syngo MR E11",
  "SpacingBetweenSlices": 2,
  "StationName": "MRC35049",
  "TaskName": "mario",
  "TotalReadoutTime": 0.0576811,
  "TxRefAmp": 307.723,
  "WipMemBlock": "5d160239-f7cd-4e2f-acca-223dc2b09798||Sequence: R016 ve11c/master r/e634e98; Dec 19 2017 11:00:25 by eja",
  "dcmmeta_affine": [
    [-1.9936693906784058, -0.11635076254606247, 0.1083732396364212, 109.2824478149414],
    [-0.14405417442321777, 1.8987526893615723, -0.6115444898605347, -55.023990631103516],
    [0.0673101544380188, 0.6174145936965942, 1.9011229276657104, -52.008209228515625],
    [0.0, 0.0, 0.0, 1.0]
],
  "dcmmeta_reorient_transform": [
    [0.0, -1.0, 0.0, 103.0],
    [1.0, 0.0, 0.0, 0.0],
    [0.0, 0.0, 1.0, 0.0],
    [0.0, 0.0, 0.0, 1.0]
],
  "dcmmeta_shape": [104, 104, 60, 449],
  "dcmmeta_slice_dim": 2,
  "dcmmeta_version": 0.6,
  "global": {
    "const": {
      "AcquisitionMatrix": [104, 0, 0, 104],
      "AngioFlag": "N",
      "BitsAllocated": 16,
      "BitsStored": 16,
      "BodyPartExamined": "BRAIN",
      "Columns": 832,
      "EchoNumbers": 1,
      "EchoTime": 37.0,
      "EchoTrainLength": 104,
      "FlipAngle": 52.0,
      "HighBit": 15,
      "ImageOrientationPatient": [0.99683470790025, 0.0720270840431, 0.03365507821514, -0.0581753825465, 0.94937633415941, -0.3087073063658],
      "ImagePositionPatient": [-780.64230788109, -884.12922292398, 211.82351821341],
      "ImageType": [
        "ORIGINAL",
        "PRIMARY",
        "P",
        "MB",
        "ND",
        "MOSAIC"
],
      "ImagedNucleus": "1H",
      "ImagingFrequency": 123.258856,
      "InPlanePhaseEncodingDirection": "COL",
      "LargestImagePixelValue": 4095,
      "MRAcquisitionType": "2D",
      "MagneticFieldStrength": 3.0,
      "Manufacturer": "SIEMENS",
      "ManufacturerModelName": "Prisma_fit",
      "Modality": "MR",
      "NumberOfAverages": 1.0,
      "NumberOfPhaseEncodingSteps": 104,
      "PercentPhaseFieldOfView": 100.0,
      "PercentSampling": 100.0,
      "PerformedProcedureStepStartTime": "152258.371000",
      "PhotometricInterpretation": "MONOCHROME2",
      "PixelBandwidth": 2290.0,
      "PixelRepresentation": 0,
      "PixelSpacing": [2.0, 2.0],
      "ProtocolName": "func_task-mario_run-03",
      "RepetitionTime": 1490.0,
      "RescaleIntercept": -4096.0,
      "RescaleSlope": 2.0,
      "RescaleType": "US",
      "Rows": 832,
      "SAR": 0.06588594558417,
      "SamplesPerPixel": 1,
      "ScanOptions": "FS",
      "ScanningSequence": "EP",
      "SequenceName": "epfid2d1_104",
      "SequenceVariant": [
        "SK",
        "SS"
],
      "SeriesDescription": "func_task-mario_run-03",
      "SeriesNumber": 17,
      "SeriesTime": "161134.209000",
      "SliceLocation": -26.690543719704,
      "SliceThickness": 2.0,
      "SmallestImagePixelValue": 0,
      "SoftwareVersions": "syngo MR E11",
      "SpacingBetweenSlices": 1.9999999423349,
      "SpecificCharacterSet": "ISO_IR 100",
      "StudyID": "1",
      "StudyTime": "152258.234000",
      "TransmitCoilName": "Body",
      "VariableFlipAngleFlag": "N",
      "WindowCenterWidthExplanation": "Algo1",
      "dBdt": 0.0},
    "slices": {}
  },
  "time": {
    "samples": {
      "AcquisitionNumber": [1, 2, 3, 4, 5, 6, 7, 8, 9, 10, 11, 12, 13, 14, 15, 16, 17, 18, 19, 20, 21, 22, 23, 24, 25, 26, 27, 28, 29, 30, 31, 32, 33, 34, 35, 36, 37, 38, 39, 40, 41, 42, 43, 44, 45, 46, 47, 48, 49, 50, 51, 52, 53, 54, 55, 56, 57, 58, 59, 60, 61, 62, 63, 64, 65, 66, 67, 68, 69, 70, 71, 72, 73, 74, 75, 76, 77, 78, 79, 80, 81, 82, 83, 84, 85, 86, 87, 88, 89, 90, 91, 92, 93, 94, 95, 96, 97, 98, 99, 100, 101, 102, 103, 104, 105, 106, 107, 108, 109, 110, 111, 112, 113, 114, 115, 116, 117, 118, 119, 120, 121, 122, 123, 124, 125, 126, 127, 128, 129, 130, 131, 132, 133, 134, 135, 136, 137, 138, 139, 140, 141, 142, 143, 144, 145, 146, 147, 148, 149, 150, 151, 152, 153, 154, 155, 156, 157, 158, 159, 160, 161, 162, 163, 164, 165, 166, 167, 168, 169, 170, 171, 172, 173, 174, 175, 176, 177, 178, 179, 180, 181, 182, 183, 184, 185, 186, 187, 188, 189, 190, 191, 192, 193, 194, 195, 196, 197, 198, 199, 200, 201, 202, 203, 204, 205, 206, 207, 208, 209, 210, 211, 212, 213, 214, 215, 216, 217, 218, 219, 220, 221, 222, 223, 224, 225, 226, 227, 228, 229, 230, 231, 232, 233, 234, 235, 236, 237, 238, 239, 240, 241, 242, 243, 244, 245, 246, 247, 248, 249, 250, 251, 252, 253, 254, 255, 256, 257, 258, 259, 260, 261, 262, 263, 264, 265, 266, 267, 268, 269, 270, 271, 272, 273, 274, 275, 276, 277, 278, 279, 280, 281, 282, 283, 284, 285, 286, 287, 288, 289, 290, 291, 292, 293, 294, 295, 296, 297, 298, 299, 300, 301, 302, 303, 304, 305, 306, 307, 308, 309, 310, 311, 312, 313, 314, 315, 316, 317, 318, 319, 320, 321, 322, 323, 324, 325, 326, 327, 328, 329, 330, 331, 332, 333, 334, 335, 336, 337, 338, 339, 340, 341, 342, 343, 344, 345, 346, 347, 348, 349, 350, 351, 352, 353, 354, 355, 356, 357, 358, 359, 360, 361, 362, 363, 364, 365, 366, 367, 368, 369, 370, 371, 372, 373, 374, 375, 376, 377, 378, 379, 380, 381, 382, 383, 384, 385, 386, 387, 388, 389, 390, 391, 392, 393, 394, 395, 396, 397, 398, 399, 400, 401, 402, 403, 404, 405, 406, 407, 408, 409, 410, 411, 412, 413, 414, 415, 416, 417, 418, 419, 420, 421, 422, 423, 424, 425, 426, 427, 428, 429, 430, 431, 432, 433, 434, 435, 436, 437, 438, 439, 440, 441, 442, 443, 444, 445, 446, 447, 448, 449],
      "AcquisitionTime": ["161026.632500", "161028.122500", "161029.612500", "161031.102500", "161032.592500", "161034.082500", "161035.572500", "161037.062500", "161038.552500", "161040.042500", "161041.532500", "161043.022500", "161044.512500", "161046.002500", "161047.492500", "161048.982500", "161050.472500", "161051.962500", "161053.452500", "161054.942500", "161056.432500", "161057.922500", "161059.412500", "161100.902500", "161102.392500", "161103.882500", "161105.372500", "161106.862500", "161108.352500", "161109.842500", "161111.332500", "161112.822500", "161114.312500", "161115.802500", "161117.292500", "161118.782500", "161120.272500", "161121.762500", "161123.252500", "161124.742500", "161126.232500", "161127.722500", "161129.212500", "161130.702500", "161132.192500", "161133.682500", "161135.172500", "161136.662500", "161138.152500", "161139.642500", "161141.132500", "161142.622500", "161144.112500", "161145.602500", "161147.092500", "161148.582500", "161150.072500", "161151.562500", "161153.052500", "161154.542500", "161156.032500", "161157.522500", "161159.012500", "161200.502500", "161201.992500", "161203.482500", "161204.972500", "161206.462500", "161207.952500", "161209.442500", "161210.932500", "161212.422500", "161213.912500", "161215.402500", "161216.892500", "161218.382500", "161219.872500", "161221.362500", "161222.852500", "161224.342500", "161225.832500", "161227.322500", "161228.812500", "161230.302500", "161231.792500", "161233.282500", "161234.772500", "161236.262500", "161237.752500", "161239.242500", "161240.732500", "161242.222500", "161243.712500", "161245.202500", "161246.692500", "161248.182500", "161249.672500", "161251.162500", "161252.652500", "161254.142500", "161255.632500", "161257.122500", "161258.612500", "161300.102500", "161301.592500", "161303.082500", "161304.572500", "161306.062500", "161307.552500", "161309.042500", "161310.532500", "161312.022500", "161313.512500", "161315.002500", "161316.492500", "161317.982500", "161319.472500", "161320.962500", "161322.452500", "161323.942500", "161325.432500", "161326.922500", "161328.412500", "161329.902500", "161331.392500", "161332.882500", "161334.372500", "161335.862500", "161337.352500", "161338.842500", "161340.332500", "161341.822500", "161343.312500", "161344.802500", "161346.292500", "161347.782500", "161349.272500", "161350.762500", "161352.252500", "161353.742500", "161355.232500", "161356.722500", "161358.212500", "161359.702500", "161401.192500", "161402.682500", "161404.172500", "161405.662500", "161407.152500", "161408.642500", "161410.132500", "161411.622500", "161413.112500", "161414.602500", "161416.092500", "161417.582500", "161419.072500", "161420.562500", "161422.052500", "161423.542500", "161425.032500", "161426.522500", "161428.012500", "161429.502500", "161430.992500", "161432.482500", "161433.972500", "161435.462500", "161436.952500", "161438.442500", "161439.932500", "161441.422500", "161442.912500", "161444.402500", "161445.892500", "161447.382500", "161448.872500", "161450.362500", "161451.852500", "161453.342500", "161454.832500", "161456.322500", "161457.812500", "161459.302500", "161500.792500", "161502.282500", "161503.772500", "161505.262500", "161506.752500", "161508.242500", "161509.732500", "161511.222500", "161512.712500", "161514.202500", "161515.692500", "161517.182500", "161518.672500", "161520.162500", "161521.652500", "161523.142500", "161524.632500", "161526.122500", "161527.612500", "161529.102500", "161530.592500", "161532.082500", "161533.572500", "161535.062500", "161536.552500", "161538.042500", "161539.532500", "161541.022500", "161542.512500", "161544.002500", "161545.492500", "161546.982500", "161548.472500", "161549.962500", "161551.452500", "161552.942500", "161554.432500", "161555.922500", "161557.412500", "161558.902500", "161600.392500", "161601.882500", "161603.372500", "161604.862500", "161606.352500", "161607.842500", "161609.332500", "161610.822500", "161612.312500", "161613.802500", "161615.292500", "161616.782500", "161618.272500", "161619.762500", "161621.252500", "161622.742500", "161624.232500", "161625.722500", "161627.212500", "161628.702500", "161630.192500", "161631.682500", "161633.172500", "161634.662500", "161636.152500", "161637.642500", "161639.132500", "161640.622500", "161642.112500", "161643.602500", "161645.092500", "161646.582500", "161648.072500", "161649.562500", "161651.052500", "161652.542500", "161654.032500", "161655.522500", "161657.012500", "161658.502500", "161659.992500", "161701.482500", "161702.972500", "161704.462500", "161705.952500", "161707.442500", "161708.932500", "161710.422500", "161711.912500", "161713.402500", "161714.892500", "161716.382500", "161717.872500", "161719.362500", "161720.852500", "161722.342500", "161723.832500", "161725.322500", "161726.812500", "161728.302500", "161729.792500", "161731.282500", "161732.772500", "161734.262500", "161735.752500", "161737.242500", "161738.732500", "161740.222500", "161741.712500", "161743.202500", "161744.692500", "161746.182500", "161747.672500", "161749.162500", "161750.652500", "161752.142500", "161753.632500", "161755.122500", "161756.612500", "161758.102500", "161759.592500", "161801.082500", "161802.572500", "161804.062500", "161805.552500", "161807.042500", "161808.532500", "161810.022500", "161811.512500", "161813.002500", "161814.492500", "161815.982500", "161817.472500", "161818.962500", "161820.452500", "161821.942500", "161823.432500", "161824.922500", "161826.412500", "161827.902500", "161829.392500", "161830.882500", "161832.372500", "161833.862500", "161835.352500", "161836.842500", "161838.332500", "161839.822500", "161841.312500", "161842.802500", "161844.292500", "161845.782500", "161847.272500", "161848.762500", "161850.252500", "161851.742500", "161853.232500", "161854.722500", "161856.212500", "161857.702500", "161859.192500", "161900.682500", "161902.172500", "161903.662500", "161905.152500", "161906.642500", "161908.132500", "161909.622500", "161911.112500", "161912.602500", "161914.092500", "161915.582500", "161917.072500", "161918.562500", "161920.052500", "161921.542500", "161923.032500", "161924.522500", "161926.012500", "161927.502500", "161928.992500", "161930.482500", "161931.972500", "161933.462500", "161934.952500", "161936.442500", "161937.932500", "161939.422500", "161940.912500", "161942.402500", "161943.892500", "161945.382500", "161946.872500", "161948.362500", "161949.852500", "161951.342500", "161952.832500", "161954.322500", "161955.812500", "161957.302500", "161958.792500", "162000.282500", "162001.772500", "162003.262500", "162004.752500", "162006.242500", "162007.732500", "162009.222500", "162010.712500", "162012.202500", "162013.692500", "162015.182500", "162016.672500", "162018.162500", "162019.652500", "162021.142500", "162022.632500", "162024.122500", "162025.612500", "162027.102500", "162028.592500", "162030.082500", "162031.572500", "162033.062500", "162034.552500", "162036.042500", "162037.532500", "162039.022500", "162040.512500", "162042.002500", "162043.492500", "162044.982500", "162046.472500", "162047.962500", "162049.452500", "162050.942500", "162052.432500", "162053.922500", "162055.412500", "162056.902500", "162058.392500", "162059.882500", "162101.372500", "162102.862500", "162104.352500", "162105.842500", "162107.332500", "162108.822500", "162110.312500", "162111.802500", "162113.292500", "162114.782500", "162116.272500", "162117.762500", "162119.252500", "162120.742500", "162122.232500", "162123.722500", "162125.212500", "162126.702500", "162128.192500", "162129.682500", "162131.172500", "162132.662500", "162134.152500"],
      "ContentTime": ["161134.211000", "161134.214000", "161134.216000", "161134.219000", "161134.221000", "161134.224000", "161134.227000", "161134.229000", "161134.231000", "161134.234000", "161134.237000", "161134.239000", "161134.241000", "161134.244000", "161134.247000", "161154.197000", "161154.200000", "161154.202000", "161154.212000", "161154.214000", "161154.217000", "161154.220000", "161154.222000", "161154.225000", "161154.227000", "161154.230000", "161154.232000", "161154.235000", "161154.237000", "161154.240000", "161154.243000", "161154.245000", "161154.248000", "161154.250000", "161154.253000", "161214.225000", "161214.228000", "161214.236000", "161214.238000", "161214.241000", "161214.243000", "161214.246000", "161214.248000", "161214.251000", "161214.253000", "161214.256000", "161214.259000", "161214.261000", "161214.264000", "161214.266000", "161214.269000", "161214.277000", "161214.279000", "161214.282000", "161214.284000", "161234.202000", "161234.205000", "161234.207000", "161234.210000", "161234.212000", "161234.215000", "161234.217000", "161234.220000", "161234.222000", "161234.225000", "161234.227000", "161234.230000", "161234.232000", "161234.235000", "161234.237000", "161234.240000", "161234.242000", "161234.245000", "161234.248000", "161234.250000", "161234.253000", "161254.193000", "161254.195000", "161254.198000", "161254.200000", "161254.203000", "161254.205000", "161254.208000", "161254.210000", "161254.213000", "161254.215000", "161254.218000", "161254.220000", "161254.223000", "161254.225000", "161254.228000", "161254.230000", "161254.233000", "161254.235000", "161254.238000", "161254.240000", "161334.246000", "161334.249000", "161334.251000", "161334.254000", "161334.256000", "161334.259000", "161334.261000", "161334.264000", "161334.266000", "161334.269000", "161334.271000", "161334.274000", "161334.276000", "161334.279000", "161334.281000", "161334.284000", "161334.286000", "161334.289000", "161334.291000", "161334.294000", "161334.296000", "161334.299000", "161334.301000", "161334.304000", "161334.306000", "161334.309000", "161334.311000", "161334.314000", "161334.316000", "161414.231000", "161414.233000", "161414.236000", "161414.238000", "161414.241000", "161414.243000", "161414.246000", "161414.248000", "161414.251000", "161414.253000", "161414.256000", "161414.258000", "161414.261000", "161414.263000", "161414.266000", "161414.268000", "161414.271000", "161414.273000", "161414.276000", "161414.279000", "161414.281000", "161414.284000", "161414.286000", "161414.289000", "161414.291000", "161414.294000", "161454.222000", "161454.225000", "161454.227000", "161454.230000", "161454.232000", "161454.235000", "161454.237000", "161454.240000", "161454.242000", "161454.245000", "161454.248000", "161454.251000", "161454.253000", "161454.256000", "161454.258000", "161454.261000", "161454.263000", "161454.266000", "161454.268000", "161454.271000", "161454.273000", "161454.276000", "161454.279000", "161454.281000", "161454.284000", "161454.286000", "161454.289000", "161534.235000", "161534.238000", "161534.240000", "161534.243000", "161534.245000", "161534.248000", "161534.250000", "161534.253000", "161534.255000", "161534.258000", "161534.260000", "161534.263000", "161534.265000", "161534.268000", "161534.270000", "161534.273000", "161534.275000", "161534.278000", "161534.280000", "161534.283000", "161534.285000", "161534.288000", "161534.290000", "161534.293000", "161534.295000", "161534.298000", "161534.300000", "161614.226000", "161614.228000", "161614.231000", "161614.233000", "161614.236000", "161614.238000", "161614.241000", "161614.243000", "161614.246000", "161614.248000", "161614.251000", "161614.260000", "161614.262000", "161614.265000", "161614.267000", "161614.270000", "161614.273000", "161614.275000", "161614.278000", "161614.281000", "161614.283000", "161614.286000", "161614.288000", "161614.291000", "161614.293000", "161614.296000", "161614.298000", "161654.223000", "161654.225000", "161654.228000", "161654.230000", "161654.233000", "161654.235000", "161654.238000", "161654.241000", "161654.243000", "161654.246000", "161654.248000", "161654.251000", "161654.253000", "161654.256000", "161654.258000", "161654.261000", "161654.263000", "161654.266000", "161654.273000", "161654.276000", "161654.278000", "161654.281000", "161654.283000", "161654.286000", "161654.288000", "161654.291000", "161654.293000", "161734.225000", "161734.227000", "161734.230000", "161734.232000", "161734.235000", "161734.237000", "161734.240000", "161734.242000", "161734.245000", "161734.247000", "161734.250000", "161734.252000", "161734.255000", "161734.257000", "161734.260000", "161734.262000", "161734.265000", "161734.268000", "161734.271000", "161734.273000", "161734.276000", "161734.278000", "161734.281000", "161734.283000", "161734.286000", "161734.288000", "161734.291000", "161814.238000", "161814.241000", "161814.243000", "161814.246000", "161814.248000", "161814.251000", "161814.253000", "161814.256000", "161814.258000", "161814.261000", "161814.263000", "161814.266000", "161814.268000", "161814.271000", "161814.274000", "161814.276000", "161814.279000", "161814.281000", "161814.284000", "161814.286000", "161814.289000", "161814.291000", "161814.294000", "161814.296000", "161814.299000", "161814.301000", "161814.304000", "161854.223000", "161854.226000", "161854.228000", "161854.231000", "161854.233000", "161854.236000", "161854.239000", "161854.241000", "161854.244000", "161854.246000", "161854.249000", "161854.251000", "161854.254000", "161854.256000", "161854.259000", "161854.261000", "161854.264000", "161854.267000", "161854.269000", "161854.272000", "161854.274000", "161854.277000", "161854.291000", "161854.294000", "161854.297000", "161854.299000", "161934.226000", "161934.229000", "161934.232000", "161934.234000", "161934.237000", "161934.239000", "161934.242000", "161934.244000", "161934.247000", "161934.249000", "161934.252000", "161934.254000", "161934.257000", "161934.259000", "161934.262000", "161934.264000", "161934.267000", "161934.269000", "161934.272000", "161934.274000", "161934.277000", "161934.279000", "161934.282000", "161934.284000", "161934.287000", "161934.289000", "161934.292000", "162014.234000", "162014.237000", "162014.240000", "162014.242000", "162014.245000", "162014.247000", "162014.250000", "162014.252000", "162014.255000", "162014.257000", "162014.260000", "162014.262000", "162014.265000", "162014.267000", "162014.270000", "162014.272000", "162014.275000", "162014.277000", "162014.280000", "162014.282000", "162014.285000", "162014.287000", "162014.290000", "162014.293000", "162014.295000", "162014.298000", "162014.300000", "162054.214000", "162054.217000", "162054.219000", "162054.222000", "162054.224000", "162054.227000", "162054.229000", "162054.232000", "162054.234000", "162054.237000", "162054.239000", "162054.242000", "162054.244000", "162054.247000", "162054.250000", "162054.252000", "162054.255000", "162054.257000", "162054.260000", "162054.262000", "162054.265000", "162054.267000", "162054.270000", "162054.272000", "162054.275000", "162054.277000", "162054.280000", "162134.235000", "162134.237000", "162134.240000", "162134.243000", "162134.245000", "162134.248000", "162134.250000", "162134.253000", "162134.255000", "162134.258000", "162134.260000", "162134.263000", "162134.266000", "162134.268000", "162134.271000", "162134.273000", "162134.276000", "162134.278000", "162134.281000", "162134.283000", "162134.286000", "162134.288000", "162134.291000", "162134.293000", "162134.296000", "162134.298000", "162134.301000", "162137.228000", "162137.231000"],
