{
  "AcquisitionMatrixPE": 104,
  "AcquisitionNumber": 1,
  "AcquisitionTime": "15:57:52.685000",
  "BandwidthPerPixelPhaseEncode": 17.17,
  "BaseResolution": 104,
  "BodyPartExamined": "BRAIN",
  "CoilCombinationMethod": "Sum of Squares",
  "ConsistencyInfo": "N4_VE11C_LATEST_20160120",
  "ConversionSoftware": "dcm2niix",
  "ConversionSoftwareVersion": "v1.0.20211006",
  "DerivedVendorReportedEchoSpacing": 0.000560011,
  "DeviceSerialNumber": "167006",
  "DwellTime": 2.1e-06,
  "EchoTime": 0.037,
  "EchoTrainLength": 104,
  "EffectiveEchoSpacing": 0.000560011,
  "FlipAngle": 52,
  "HeudiconvVersion": "0.10.0",
  "ImageComments": "Unaliased MB4/PE3/LB",
  "ImageOrientationPatientDICOM": [0.996835, 0.0720271, 0.0336551, -0.0581754, 0.949376, -0.308707],
  "ImageOrientationText": "Tra>Cor(-17.8)>Sag(3.1)",
  "ImageType": [
    "ORIGINAL",
    "PRIMARY",
    "M",
    "MB",
    "ND",
    "MOSAIC"
],
  "ImagingFrequency": 123.259,
  "InPlanePhaseEncodingDirectionDICOM": "COL",
  "InstitutionAddress": "Chemin Queen-Mary 4565,Montreal,District,CA,H3W 1W5",
  "InstitutionName": "IUGM",
  "InstitutionalDepartmentName": "Department",
  "MRAcquisitionType": "2D",
  "MagneticFieldStrength": 3,
  "Manufacturer": "Siemens",
  "ManufacturersModelName": "Prisma_fit",
  "MatrixCoilMode": "SENSE",
  "Modality": "MR",
  "MultibandAccelerationFactor": 4,
  "PartialFourier": 1,
  "PatientPosition": "HFS",
  "PercentPhaseFOV": 100,
  "PercentSampling": 100,
  "PhaseEncodingDirection": "j",
  "PhaseEncodingSteps": 104,
  "PhaseResolution": 1,
  "PixelBandwidth": 2290,
  "ProcedureStepDescription": "games^mario",
  "ProtocolName": "func_task-mario_run-02",
  "PulseSequenceDetails": "%CustomerSeq%\\cmrr_mbep2d_bold",
  "ReceiveCoilActiveElements": "HC1-7;NC1,2",
  "ReceiveCoilName": "HeadNeck_64",
  "ReconMatrixPE": 104,
  "RepetitionTime": 1.49,
  "SAR": 0.0658859,
  "ScanOptions": "FS",
  "ScanningSequence": "EP",
  "SequenceName": "epfid2d1_104",
  "SequenceVariant": "SK\\SS",
  "SeriesDescription": "func_task-mario_run-02",
  "SeriesNumber": 13,
  "ShimSetting": [640, -7191, -8782, 666, 95, 14, 6, -27],
  "SliceThickness": 2,
  "SliceTiming": [0, 0.7825, 0.0975, 0.88, 0.195, 0.98, 0.2925, 1.0775, 0.39, 1.175, 0.49, 1.2725, 0.5875, 1.37, 0.685, 0, 0.7825, 0.0975, 0.88, 0.195, 0.98, 0.2925, 1.0775, 0.39, 1.175, 0.49, 1.2725, 0.5875, 1.37, 0.685, 0, 0.7825, 0.0975, 0.88, 0.195, 0.98, 0.2925, 1.0775, 0.39, 1.175, 0.49, 1.2725, 0.5875, 1.37, 0.685, 0, 0.7825, 0.0975, 0.88, 0.195, 0.98, 0.2925, 1.0775, 0.39, 1.175, 0.49, 1.2725, 0.5875, 1.37, 0.685],
  "SoftwareVersions": "syngo MR E11",
  "SpacingBetweenSlices": 2,
  "StationName": "MRC35049",
  "TaskName": "mario",
  "TotalReadoutTime": 0.0576811,
  "TxRefAmp": 307.723,
  "WipMemBlock": "bc210f72-90c2-4c11-a349-77f53ed5509d||Sequence: R016 ve11c/master r/e634e98; Dec 19 2017 11:00:25 by eja",
  "dcmmeta_affine": [
    [-1.9936693906784058, -0.11635076254606247, 0.1083732396364212, 109.2824478149414],
    [-0.14405417442321777, 1.8987526893615723, -0.6115444898605347, -55.023990631103516],
    [0.0673101544380188, 0.6174145936965942, 1.9011229276657104, -52.008209228515625],
    [0.0, 0.0, 0.0, 1.0]
],
  "dcmmeta_reorient_transform": [
    [0.0, -1.0, 0.0, 103.0],
    [1.0, 0.0, 0.0, 0.0],
    [0.0, 0.0, 1.0, 0.0],
    [0.0, 0.0, 0.0, 1.0]
],
  "dcmmeta_shape": [104, 104, 60, 444],
  "dcmmeta_slice_dim": 2,
  "dcmmeta_version": 0.6,
  "global": {
    "const": {
      "AcquisitionMatrix": [104, 0, 0, 104],
      "AngioFlag": "N",
      "BitsAllocated": 16,
      "BitsStored": 16,
      "BodyPartExamined": "BRAIN",
      "Columns": 832,
      "EchoNumbers": 1,
      "EchoTime": 37.0,
      "EchoTrainLength": 104,
      "FlipAngle": 52.0,
      "HighBit": 15,
      "ImageOrientationPatient": [0.99683470790025, 0.0720270840431, 0.03365507821514, -0.0581753825465, 0.94937633415941, -0.3087073063658],
      "ImagePositionPatient": [-780.64230788109, -884.12922292398, 211.82351821341],
      "ImageType": [
        "ORIGINAL",
        "PRIMARY",
        "M",
        "MB",
        "ND",
        "MOSAIC"
],
      "ImagedNucleus": "1H",
      "ImagingFrequency": 123.258844,
      "InPlanePhaseEncodingDirection": "COL",
      "MRAcquisitionType": "2D",
      "MagneticFieldStrength": 3.0,
      "Manufacturer": "SIEMENS",
      "ManufacturerModelName": "Prisma_fit",
      "Modality": "MR",
      "NumberOfAverages": 1.0,
      "NumberOfPhaseEncodingSteps": 104,
      "PercentPhaseFieldOfView": 100.0,
      "PercentSampling": 100.0,
      "PerformedProcedureStepStartTime": "152258.371000",
      "PhotometricInterpretation": "MONOCHROME2",
      "PixelBandwidth": 2290.0,
      "PixelRepresentation": 0,
      "PixelSpacing": [2.0, 2.0],
      "ProtocolName": "func_task-mario_run-02",
      "RepetitionTime": 1490.0,
      "Rows": 832,
      "SAR": 0.06588594558417,
      "SamplesPerPixel": 1,
      "ScanOptions": "FS",
      "ScanningSequence": "EP",
      "SequenceName": "epfid2d1_104",
      "SequenceVariant": [
        "SK",
        "SS"
],
      "SeriesDescription": "func_task-mario_run-02",
      "SeriesNumber": 13,
      "SeriesTime": "155914.053000",
      "SliceLocation": -26.690543719704,
      "SliceThickness": 2.0,
      "SmallestImagePixelValue": 0,
      "SoftwareVersions": "syngo MR E11",
      "SpacingBetweenSlices": 1.9999999423349,
      "SpecificCharacterSet": "ISO_IR 100",
      "StudyID": "1",
      "StudyTime": "152258.234000",
      "TransmitCoilName": "Body",
      "VariableFlipAngleFlag": "N",
      "WindowCenterWidthExplanation": "Algo1",
      "dBdt": 0.0},
    "slices": {}
  },
  "time": {
    "samples": {
      "AcquisitionNumber": [1, 2, 3, 4, 5, 6, 7, 8, 9, 10, 11, 12, 13, 14, 15, 16, 17, 18, 19, 20, 21, 22, 23, 24, 25, 26, 27, 28, 29, 30, 31, 32, 33, 34, 35, 36, 37, 38, 39, 40, 41, 42, 43, 44, 45, 46, 47, 48, 49, 50, 51, 52, 53, 54, 55, 56, 57, 58, 59, 60, 61, 62, 63, 64, 65, 66, 67, 68, 69, 70, 71, 72, 73, 74, 75, 76, 77, 78, 79, 80, 81, 82, 83, 84, 85, 86, 87, 88, 89, 90, 91, 92, 93, 94, 95, 96, 97, 98, 99, 100, 101, 102, 103, 104, 105, 106, 107, 108, 109, 110, 111, 112, 113, 114, 115, 116, 117, 118, 119, 120, 121, 122, 123, 124, 125, 126, 127, 128, 129, 130, 131, 132, 133, 134, 135, 136, 137, 138, 139, 140, 141, 142, 143, 144, 145, 146, 147, 148, 149, 150, 151, 152, 153, 154, 155, 156, 157, 158, 159, 160, 161, 162, 163, 164, 165, 166, 167, 168, 169, 170, 171, 172, 173, 174, 175, 176, 177, 178, 179, 180, 181, 182, 183, 184, 185, 186, 187, 188, 189, 190, 191, 192, 193, 194, 195, 196, 197, 198, 199, 200, 201, 202, 203, 204, 205, 206, 207, 208, 209, 210, 211, 212, 213, 214, 215, 216, 217, 218, 219, 220, 221, 222, 223, 224, 225, 226, 227, 228, 229, 230, 231, 232, 233, 234, 235, 236, 237, 238, 239, 240, 241, 242, 243, 244, 245, 246, 247, 248, 249, 250, 251, 252, 253, 254, 255, 256, 257, 258, 259, 260, 261, 262, 263, 264, 265, 266, 267, 268, 269, 270, 271, 272, 273, 274, 275, 276, 277, 278, 279, 280, 281, 282, 283, 284, 285, 286, 287, 288, 289, 290, 291, 292, 293, 294, 295, 296, 297, 298, 299, 300, 301, 302, 303, 304, 305, 306, 307, 308, 309, 310, 311, 312, 313, 314, 315, 316, 317, 318, 319, 320, 321, 322, 323, 324, 325, 326, 327, 328, 329, 330, 331, 332, 333, 334, 335, 336, 337, 338, 339, 340, 341, 342, 343, 344, 345, 346, 347, 348, 349, 350, 351, 352, 353, 354, 355, 356, 357, 358, 359, 360, 361, 362, 363, 364, 365, 366, 367, 368, 369, 370, 371, 372, 373, 374, 375, 376, 377, 378, 379, 380, 381, 382, 383, 384, 385, 386, 387, 388, 389, 390, 391, 392, 393, 394, 395, 396, 397, 398, 399, 400, 401, 402, 403, 404, 405, 406, 407, 408, 409, 410, 411, 412, 413, 414, 415, 416, 417, 418, 419, 420, 421, 422, 423, 424, 425, 426, 427, 428, 429, 430, 431, 432, 433, 434, 435, 436, 437, 438, 439, 440, 441, 442, 443, 444],
      "AcquisitionTime": ["155752.685000", "155754.175000", "155755.665000", "155757.155000", "155758.645000", "155800.135000", "155801.625000", "155803.115000", "155804.605000", "155806.095000", "155807.585000", "155809.075000", "155810.565000", "155812.055000", "155813.545000", "155815.035000", "155816.525000", "155818.015000", "155819.505000", "155820.995000", "155822.485000", "155823.975000", "155825.465000", "155826.955000", "155828.445000", "155829.935000", "155831.425000", "155832.915000", "155834.405000", "155835.895000", "155837.385000", "155838.875000", "155840.365000", "155841.855000", "155843.345000", "155844.835000", "155846.325000", "155847.815000", "155849.305000", "155850.795000", "155852.285000", "155853.775000", "155855.265000", "155856.755000", "155858.245000", "155859.735000", "155901.225000", "155902.715000", "155904.205000", "155905.695000", "155907.185000", "155908.675000", "155910.165000", "155911.655000", "155913.145000", "155914.635000", "155916.125000", "155917.615000", "155919.105000", "155920.595000", "155922.085000", "155923.575000", "155925.065000", "155926.555000", "155928.045000", "155929.535000", "155931.025000", "155932.515000", "155934.005000", "155935.495000", "155936.985000", "155938.475000", "155939.965000", "155941.455000", "155942.945000", "155944.435000", "155945.925000", "155947.415000", "155948.905000", "155950.395000", "155951.885000", "155953.375000", "155954.865000", "155956.355000", "155957.845000", "155959.335000", "160000.825000", "160002.315000", "160003.805000", "160005.295000", "160006.785000", "160008.275000", "160009.765000", "160011.255000", "160012.745000", "160014.235000", "160015.725000", "160017.215000", "160018.705000", "160020.195000", "160021.685000", "160023.175000", "160024.665000", "160026.155000", "160027.645000", "160029.135000", "160030.625000", "160032.115000", "160033.605000", "160035.095000", "160036.585000", "160038.075000", "160039.565000", "160041.055000", "160042.545000", "160044.035000", "160045.525000", "160047.015000", "160048.505000", "160049.995000", "160051.485000", "160052.975000", "160054.465000", "160055.955000", "160057.445000", "160058.935000", "160100.425000", "160101.915000", "160103.405000", "160104.895000", "160106.385000", "160107.875000", "160109.365000", "160110.855000", "160112.345000", "160113.835000", "160115.325000", "160116.815000", "160118.305000", "160119.795000", "160121.285000", "160122.775000", "160124.265000", "160125.755000", "160127.245000", "160128.735000", "160130.225000", "160131.715000", "160133.205000", "160134.695000", "160136.185000", "160137.675000", "160139.165000", "160140.655000", "160142.145000", "160143.635000", "160145.125000", "160146.615000", "160148.105000", "160149.595000", "160151.085000", "160152.575000", "160154.065000", "160155.555000", "160157.045000", "160158.535000", "160200.025000", "160201.515000", "160203.005000", "160204.495000", "160205.985000", "160207.475000", "160208.965000", "160210.455000", "160211.945000", "160213.435000", "160214.925000", "160216.415000", "160217.905000", "160219.395000", "160220.885000", "160222.375000", "160223.865000", "160225.355000", "160226.845000", "160228.335000", "160229.825000", "160231.315000", "160232.805000", "160234.295000", "160235.785000", "160237.275000", "160238.765000", "160240.255000", "160241.745000", "160243.235000", "160244.725000", "160246.215000", "160247.705000", "160249.195000", "160250.685000", "160252.175000", "160253.665000", "160255.155000", "160256.645000", "160258.135000", "160259.625000", "160301.115000", "160302.605000", "160304.095000", "160305.585000", "160307.075000", "160308.565000", "160310.055000", "160311.545000", "160313.035000", "160314.525000", "160316.015000", "160317.505000", "160318.995000", "160320.485000", "160321.975000", "160323.465000", "160324.955000", "160326.445000", "160327.935000", "160329.425000", "160330.915000", "160332.405000", "160333.895000", "160335.385000", "160336.875000", "160338.365000", "160339.855000", "160341.345000", "160342.835000", "160344.325000", "160345.815000", "160347.305000", "160348.795000", "160350.285000", "160351.775000", "160353.265000", "160354.755000", "160356.245000", "160357.735000", "160359.225000", "160400.715000", "160402.205000", "160403.695000", "160405.185000", "160406.675000", "160408.165000", "160409.655000", "160411.145000", "160412.635000", "160414.125000", "160415.615000", "160417.105000", "160418.595000", "160420.085000", "160421.575000", "160423.065000", "160424.555000", "160426.045000", "160427.535000", "160429.025000", "160430.515000", "160432.005000", "160433.495000", "160434.985000", "160436.475000", "160437.965000", "160439.455000", "160440.945000", "160442.435000", "160443.925000", "160445.415000", "160446.905000", "160448.395000", "160449.885000", "160451.375000", "160452.865000", "160454.355000", "160455.845000", "160457.335000", "160458.825000", "160500.315000", "160501.805000", "160503.295000", "160504.785000", "160506.275000", "160507.765000", "160509.255000", "160510.745000", "160512.235000", "160513.725000", "160515.215000", "160516.705000", "160518.195000", "160519.685000", "160521.175000", "160522.665000", "160524.155000", "160525.645000", "160527.135000", "160528.625000", "160530.115000", "160531.605000", "160533.095000", "160534.585000", "160536.075000", "160537.565000", "160539.055000", "160540.545000", "160542.035000", "160543.525000", "160545.015000", "160546.505000", "160547.995000", "160549.485000", "160550.975000", "160552.465000", "160553.955000", "160555.445000", "160556.935000", "160558.425000", "160559.915000", "160601.405000", "160602.895000", "160604.385000", "160605.875000", "160607.365000", "160608.855000", "160610.345000", "160611.835000", "160613.325000", "160614.815000", "160616.305000", "160617.795000", "160619.285000", "160620.775000", "160622.265000", "160623.755000", "160625.245000", "160626.735000", "160628.225000", "160629.715000", "160631.205000", "160632.695000", "160634.185000", "160635.675000", "160637.165000", "160638.655000", "160640.145000", "160641.635000", "160643.125000", "160644.615000", "160646.105000", "160647.595000", "160649.085000", "160650.575000", "160652.065000", "160653.555000", "160655.045000", "160656.535000", "160658.025000", "160659.515000", "160701.005000", "160702.495000", "160703.985000", "160705.475000", "160706.965000", "160708.455000", "160709.945000", "160711.435000", "160712.925000", "160714.415000", "160715.905000", "160717.395000", "160718.885000", "160720.375000", "160721.865000", "160723.355000", "160724.845000", "160726.335000", "160727.825000", "160729.315000", "160730.805000", "160732.295000", "160733.785000", "160735.275000", "160736.765000", "160738.255000", "160739.745000", "160741.235000", "160742.725000", "160744.215000", "160745.705000", "160747.195000", "160748.685000", "160750.175000", "160751.665000", "160753.155000", "160754.645000", "160756.135000", "160757.625000", "160759.115000", "160800.605000", "160802.095000", "160803.585000", "160805.075000", "160806.565000", "160808.055000", "160809.545000", "160811.035000", "160812.525000", "160814.015000", "160815.505000", "160816.995000", "160818.485000", "160819.975000", "160821.465000", "160822.955000", "160824.445000", "160825.935000", "160827.425000", "160828.915000", "160830.405000", "160831.895000", "160833.385000", "160834.875000", "160836.365000", "160837.855000", "160839.345000", "160840.835000", "160842.325000", "160843.815000", "160845.305000", "160846.795000", "160848.285000", "160849.775000", "160851.265000", "160852.755000"],
      "ContentTime": ["155914.056000", "155914.060000", "155914.063000", "155914.067000", "155914.070000", "155914.073000", "155914.077000", "155914.080000", "155914.084000", "155914.087000", "155914.090000", "155914.094000", "155914.104000", "155914.107000", "155914.110000", "155914.114000", "155914.117000", "155914.120000", "155914.124000", "155914.127000", "155914.130000", "155914.134000", "155914.137000", "155914.140000", "155914.144000", "155914.147000", "155914.150000", "155934.020000", "155934.024000", "155934.027000", "155934.031000", "155934.034000", "155934.038000", "155934.042000", "155934.046000", "155934.050000", "155934.053000", "155934.056000", "155934.060000", "155934.063000", "155934.066000", "155934.070000", "155934.073000", "155934.076000", "155934.080000", "155934.083000", "155934.086000", "155954.018000", "155954.022000", "155954.025000", "155954.028000", "155954.032000", "155954.035000", "155954.038000", "155954.042000", "155954.045000", "155954.048000", "155954.052000", "155954.055000", "155954.058000", "155954.062000", "155954.065000", "155954.068000", "155954.072000", "155954.075000", "155954.078000", "155954.082000", "155954.085000", "160014.018000", "160014.022000", "160014.025000", "160014.028000", "160014.042000", "160014.045000", "160014.049000", "160014.052000", "160014.055000", "160014.059000", "160014.062000", "160014.065000", "160014.069000", "160014.072000", "160014.075000", "160014.079000", "160014.082000", "160014.085000", "160014.089000", "160014.092000", "160054.019000", "160054.027000", "160054.030000", "160054.034000", "160054.037000", "160054.040000", "160054.044000", "160054.047000", "160054.051000", "160054.054000", "160054.058000", "160054.061000", "160054.064000", "160054.068000", "160054.071000", "160054.074000", "160054.078000", "160054.081000", "160054.085000", "160054.088000", "160054.091000", "160054.094000", "160054.098000", "160054.101000", "160054.104000", "160054.108000", "160054.111000", "160054.115000", "160054.118000", "160054.121000", "160054.125000", "160054.128000", "160054.131000", "160114.019000", "160114.023000", "160114.026000", "160114.030000", "160114.033000", "160114.037000", "160114.040000", "160114.043000", "160114.047000", "160114.050000", "160114.053000", "160114.056000", "160114.060000", "160154.019000", "160154.023000", "160154.026000", "160154.030000", "160154.033000", "160154.036000", "160154.040000", "160154.043000", "160154.046000", "160154.050000", "160154.053000", "160154.056000", "160154.060000", "160154.063000", "160154.067000", "160154.070000", "160154.073000", "160154.077000", "160154.080000", "160154.083000", "160154.087000", "160154.090000", "160154.094000", "160154.097000", "160154.100000", "160154.103000", "160154.107000", "160234.018000", "160234.022000", "160234.025000", "160234.029000", "160234.032000", "160234.036000", "160234.039000", "160234.042000", "160234.046000", "160234.049000", "160234.052000", "160234.055000", "160234.059000", "160234.076000", "160234.080000", "160234.083000", "160234.086000", "160234.090000", "160234.093000", "160234.096000", "160234.100000", "160234.103000", "160234.106000", "160234.110000", "160234.113000", "160234.116000", "160234.119000", "160314.019000", "160314.023000", "160314.027000", "160314.032000", "160314.037000", "160314.041000", "160314.045000", "160314.049000", "160314.053000", "160314.056000", "160314.060000", "160314.064000", "160314.068000", "160314.071000", "160314.075000", "160314.078000", "160314.081000", "160314.084000", "160314.088000", "160314.091000", "160314.095000", "160314.098000", "160314.101000", "160314.105000", "160314.108000", "160314.111000", "160354.019000", "160354.023000", "160354.026000", "160354.030000", "160354.033000", "160354.036000", "160354.040000", "160354.043000", "160354.046000", "160354.050000", "160354.053000", "160354.057000", "160354.060000", "160354.063000", "160354.067000", "160354.070000", "160354.073000", "160354.077000", "160354.086000", "160354.090000", "160354.093000", "160354.096000", "160354.100000", "160354.103000", "160354.106000", "160354.110000", "160354.113000", "160434.018000", "160434.022000", "160434.025000", "160434.029000", "160434.032000", "160434.036000", "160434.039000", "160434.042000", "160434.046000", "160434.049000", "160434.052000", "160434.056000", "160434.059000", "160434.062000", "160434.066000", "160434.069000", "160434.073000", "160434.076000", "160434.079000", "160434.082000", "160434.086000", "160434.089000", "160434.093000", "160434.096000", "160434.099000", "160434.103000", "160434.106000", "160514.019000", "160514.023000", "160514.026000", "160514.030000", "160514.033000", "160514.036000", "160514.040000", "160514.043000", "160514.047000", "160514.050000", "160514.053000", "160514.057000", "160514.060000", "160514.063000", "160514.067000", "160514.070000", "160514.073000", "160514.077000", "160514.080000", "160514.083000", "160514.087000", "160514.090000", "160514.094000", "160514.097000", "160514.100000", "160514.104000", "160514.107000", "160554.019000", "160554.023000", "160554.026000", "160554.030000", "160554.033000", "160554.037000", "160554.040000", "160554.043000", "160554.047000", "160554.050000", "160554.054000", "160554.057000", "160554.061000", "160554.064000", "160554.067000", "160554.071000", "160554.074000", "160554.078000", "160554.081000", "160554.084000", "160554.088000", "160554.091000", "160554.094000", "160554.098000", "160554.101000", "160554.104000", "160554.108000", "160634.019000", "160634.023000", "160634.032000", "160634.035000", "160634.039000", "160634.042000", "160634.045000", "160634.049000", "160634.052000", "160634.055000", "160634.059000", "160634.062000", "160634.066000", "160634.069000", "160634.073000", "160634.076000", "160634.079000", "160634.083000", "160634.086000", "160634.090000", "160634.093000", "160634.096000", "160634.100000", "160634.103000", "160634.106000", "160634.109000", "160634.113000", "160714.018000", "160714.022000", "160714.025000", "160714.028000", "160714.032000", "160714.035000", "160714.039000", "160714.042000", "160714.045000", "160714.049000", "160714.052000", "160714.055000", "160714.070000", "160714.073000", "160714.076000", "160714.080000", "160714.083000", "160714.087000", "160714.090000", "160714.093000", "160714.097000", "160714.100000", "160714.103000", "160714.107000", "160714.110000", "160714.113000", "160714.117000", "160754.021000", "160754.025000", "160754.029000", "160754.032000", "160754.036000", "160754.039000", "160754.043000", "160754.046000", "160754.049000", "160754.053000", "160754.056000", "160754.059000", "160754.063000", "160754.066000", "160754.070000", "160754.073000", "160754.076000", "160754.080000", "160754.083000", "160754.087000", "160754.090000", "160754.093000", "160754.097000", "160754.100000", "160754.104000", "160754.107000", "160834.019000", "160834.023000", "160834.026000", "160834.030000", "160834.033000", "160834.037000", "160834.040000", "160834.043000", "160834.047000", "160834.050000", "160834.054000", "160834.057000", "160834.060000", "160834.063000", "160834.067000", "160834.070000", "160834.074000", "160834.077000", "160834.080000", "160834.084000", "160834.087000", "160834.090000", "160834.094000", "160834.097000", "160834.100000", "160834.104000", "160834.107000", "160855.776000", "160855.780000", "160855.783000", "160855.786000", "160855.790000", "160855.793000", "160855.797000", "160855.800000", "160855.803000", "160855.806000", "160855.810000", "160855.813000", "160855.823000", "160855.826000", "160855.830000"],
