{
  "AcquisitionMatrixPE": 104,
  "AcquisitionNumber": 1,
  "AcquisitionTime": "16:23:23.855000",
  "BandwidthPerPixelPhaseEncode": 17.17,
  "BaseResolution": 104,
  "BodyPartExamined": "BRAIN",
  "CoilCombinationMethod": "Sum of Squares",
  "ConsistencyInfo": "N4_VE11C_LATEST_20160120",
  "ConversionSoftware": "dcm2niix",
  "ConversionSoftwareVersion": "v1.0.20211006",
  "DerivedVendorReportedEchoSpacing": 0.000560011,
  "DeviceSerialNumber": "167006",
  "DwellTime": 2.1e-06,
  "EchoTime": 0.037,
  "EchoTrainLength": 104,
  "EffectiveEchoSpacing": 0.000560011,
  "FlipAngle": 52,
  "HeudiconvVersion": "0.10.0",
  "ImageComments": "Unaliased MB4/PE3/LB",
  "ImageOrientationPatientDICOM": [0.996835, 0.0720271, 0.0336551, -0.0581754, 0.949376, -0.308707],
  "ImageOrientationText": "Tra>Cor(-17.8)>Sag(3.1)",
  "ImageType": [
    "ORIGINAL",
    "PRIMARY",
    "M",
    "MB",
    "ND",
    "MOSAIC"
],
  "ImagingFrequency": 123.259,
  "InPlanePhaseEncodingDirectionDICOM": "COL",
  "InstitutionAddress": "Chemin Queen-Mary 4565,Montreal,District,CA,H3W 1W5",
  "InstitutionName": "IUGM",
  "InstitutionalDepartmentName": "Department",
  "MRAcquisitionType": "2D",
  "MagneticFieldStrength": 3,
  "Manufacturer": "Siemens",
  "ManufacturersModelName": "Prisma_fit",
  "MatrixCoilMode": "SENSE",
  "Modality": "MR",
  "MultibandAccelerationFactor": 4,
  "PartialFourier": 1,
  "PatientPosition": "HFS",
  "PercentPhaseFOV": 100,
  "PercentSampling": 100,
  "PhaseEncodingDirection": "j",
  "PhaseEncodingSteps": 104,
  "PhaseResolution": 1,
  "PixelBandwidth": 2290,
  "ProcedureStepDescription": "games^mario",
  "ProtocolName": "func_task-mario_run-04",
  "PulseSequenceDetails": "%CustomerSeq%\\cmrr_mbep2d_bold",
  "ReceiveCoilActiveElements": "HC1-7;NC1,2",
  "ReceiveCoilName": "HeadNeck_64",
  "ReconMatrixPE": 104,
  "RepetitionTime": 1.49,
  "SAR": 0.0658859,
  "ScanOptions": "FS",
  "ScanningSequence": "EP",
  "SequenceName": "epfid2d1_104",
  "SequenceVariant": "SK\\SS",
  "SeriesDescription": "func_task-mario_run-04",
  "SeriesNumber": 19,
  "ShimSetting": [640, -7191, -8782, 666, 95, 14, 6, -27],
  "SliceThickness": 2,
  "SliceTiming": [0, 0.785, 0.0975, 0.8825, 0.195, 0.98, 0.295, 1.0775, 0.3925, 1.175, 0.49, 1.275, 0.5875, 1.3725, 0.685, 0, 0.785, 0.0975, 0.8825, 0.195, 0.98, 0.295, 1.0775, 0.3925, 1.175, 0.49, 1.275, 0.5875, 1.3725, 0.685, 0, 0.785, 0.0975, 0.8825, 0.195, 0.98, 0.295, 1.0775, 0.3925, 1.175, 0.49, 1.275, 0.5875, 1.3725, 0.685, 0, 0.785, 0.0975, 0.8825, 0.195, 0.98, 0.295, 1.0775, 0.3925, 1.175, 0.49, 1.275, 0.5875, 1.3725, 0.685],
  "SoftwareVersions": "syngo MR E11",
  "SpacingBetweenSlices": 2,
  "StationName": "MRC35049",
  "TaskName": "mario",
  "TotalReadoutTime": 0.0576811,
  "TxRefAmp": 307.723,
  "WipMemBlock": "a3e92113-02b7-4c8c-bcc8-b9a8981025ac||Sequence: R016 ve11c/master r/e634e98; Dec 19 2017 11:00:25 by eja",
  "dcmmeta_affine": [
    [-1.9936693906784058, -0.11635076254606247, 0.1083732396364212, 109.2824478149414],
    [-0.14405417442321777, 1.8987526893615723, -0.6115444898605347, -55.023990631103516],
    [0.0673101544380188, 0.6174145936965942, 1.9011229276657104, -52.008209228515625],
    [0.0, 0.0, 0.0, 1.0]
],
  "dcmmeta_reorient_transform": [
    [0.0, -1.0, 0.0, 103.0],
    [1.0, 0.0, 0.0, 0.0],
    [0.0, 0.0, 1.0, 0.0],
    [0.0, 0.0, 0.0, 1.0]
],
  "dcmmeta_shape": [104, 104, 60, 436],
  "dcmmeta_slice_dim": 2,
  "dcmmeta_version": 0.6,
  "global": {
    "const": {
      "AcquisitionMatrix": [104, 0, 0, 104],
      "AngioFlag": "N",
      "BitsAllocated": 16,
      "BitsStored": 16,
      "BodyPartExamined": "BRAIN",
      "Columns": 832,
      "EchoNumbers": 1,
      "EchoTime": 37.0,
      "EchoTrainLength": 104,
      "FlipAngle": 52.0,
      "HighBit": 15,
      "ImageOrientationPatient": [0.99683470790025, 0.0720270840431, 0.03365507821514, -0.0581753825465, 0.94937633415941, -0.3087073063658],
      "ImagePositionPatient": [-780.64230788109, -884.12922292398, 211.82351821341],
      "ImageType": [
        "ORIGINAL",
        "PRIMARY",
        "M",
        "MB",
        "ND",
        "MOSAIC"
],
      "ImagedNucleus": "1H",
      "ImagingFrequency": 123.258854,
      "InPlanePhaseEncodingDirection": "COL",
      "MRAcquisitionType": "2D",
      "MagneticFieldStrength": 3.0,
      "Manufacturer": "SIEMENS",
      "ManufacturerModelName": "Prisma_fit",
      "Modality": "MR",
      "NumberOfAverages": 1.0,
      "NumberOfPhaseEncodingSteps": 104,
      "PercentPhaseFieldOfView": 100.0,
      "PercentSampling": 100.0,
      "PerformedProcedureStepStartTime": "152258.371000",
      "PhotometricInterpretation": "MONOCHROME2",
      "PixelBandwidth": 2290.0,
      "PixelRepresentation": 0,
      "PixelSpacing": [2.0, 2.0],
      "ProtocolName": "func_task-mario_run-04",
      "RepetitionTime": 1490.0,
      "Rows": 832,
      "SAR": 0.06588594558417,
      "SamplesPerPixel": 1,
      "ScanOptions": "FS",
      "ScanningSequence": "EP",
      "SequenceName": "epfid2d1_104",
      "SequenceVariant": [
        "SK",
        "SS"
],
      "SeriesDescription": "func_task-mario_run-04",
      "SeriesNumber": 19,
      "SeriesTime": "162443.758000",
      "SliceLocation": -26.690543719704,
      "SliceThickness": 2.0,
      "SmallestImagePixelValue": 0,
      "SoftwareVersions": "syngo MR E11",
      "SpacingBetweenSlices": 1.9999999423349,
      "SpecificCharacterSet": "ISO_IR 100",
      "StudyID": "1",
      "StudyTime": "152258.234000",
      "TransmitCoilName": "Body",
      "VariableFlipAngleFlag": "N",
      "WindowCenterWidthExplanation": "Algo1",
      "dBdt": 0.0},
    "slices": {}
  },
  "time": {
    "samples": {
      "AcquisitionNumber": [1, 2, 3, 4, 5, 6, 7, 8, 9, 10, 11, 12, 13, 14, 15, 16, 17, 18, 19, 20, 21, 22, 23, 24, 25, 26, 27, 28, 29, 30, 31, 32, 33, 34, 35, 36, 37, 38, 39, 40, 41, 42, 43, 44, 45, 46, 47, 48, 49, 50, 51, 52, 53, 54, 55, 56, 57, 58, 59, 60, 61, 62, 63, 64, 65, 66, 67, 68, 69, 70, 71, 72, 73, 74, 75, 76, 77, 78, 79, 80, 81, 82, 83, 84, 85, 86, 87, 88, 89, 90, 91, 92, 93, 94, 95, 96, 97, 98, 99, 100, 101, 102, 103, 104, 105, 106, 107, 108, 109, 110, 111, 112, 113, 114, 115, 116, 117, 118, 119, 120, 121, 122, 123, 124, 125, 126, 127, 128, 129, 130, 131, 132, 133, 134, 135, 136, 137, 138, 139, 140, 141, 142, 143, 144, 145, 146, 147, 148, 149, 150, 151, 152, 153, 154, 155, 156, 157, 158, 159, 160, 161, 162, 163, 164, 165, 166, 167, 168, 169, 170, 171, 172, 173, 174, 175, 176, 177, 178, 179, 180, 181, 182, 183, 184, 185, 186, 187, 188, 189, 190, 191, 192, 193, 194, 195, 196, 197, 198, 199, 200, 201, 202, 203, 204, 205, 206, 207, 208, 209, 210, 211, 212, 213, 214, 215, 216, 217, 218, 219, 220, 221, 222, 223, 224, 225, 226, 227, 228, 229, 230, 231, 232, 233, 234, 235, 236, 237, 238, 239, 240, 241, 242, 243, 244, 245, 246, 247, 248, 249, 250, 251, 252, 253, 254, 255, 256, 257, 258, 259, 260, 261, 262, 263, 264, 265, 266, 267, 268, 269, 270, 271, 272, 273, 274, 275, 276, 277, 278, 279, 280, 281, 282, 283, 284, 285, 286, 287, 288, 289, 290, 291, 292, 293, 294, 295, 296, 297, 298, 299, 300, 301, 302, 303, 304, 305, 306, 307, 308, 309, 310, 311, 312, 313, 314, 315, 316, 317, 318, 319, 320, 321, 322, 323, 324, 325, 326, 327, 328, 329, 330, 331, 332, 333, 334, 335, 336, 337, 338, 339, 340, 341, 342, 343, 344, 345, 346, 347, 348, 349, 350, 351, 352, 353, 354, 355, 356, 357, 358, 359, 360, 361, 362, 363, 364, 365, 366, 367, 368, 369, 370, 371, 372, 373, 374, 375, 376, 377, 378, 379, 380, 381, 382, 383, 384, 385, 386, 387, 388, 389, 390, 391, 392, 393, 394, 395, 396, 397, 398, 399, 400, 401, 402, 403, 404, 405, 406, 407, 408, 409, 410, 411, 412, 413, 414, 415, 416, 417, 418, 419, 420, 421, 422, 423, 424, 425, 426, 427, 428, 429, 430, 431, 432, 433, 434, 435, 436],
      "AcquisitionTime": ["162323.855000", "162325.345000", "162326.835000", "162328.325000", "162329.815000", "162331.305000", "162332.795000", "162334.285000", "162335.775000", "162337.265000", "162338.755000", "162340.245000", "162341.735000", "162343.225000", "162344.715000", "162346.205000", "162347.695000", "162349.185000", "162350.675000", "162352.165000", "162353.655000", "162355.145000", "162356.635000", "162358.125000", "162359.615000", "162401.105000", "162402.595000", "162404.085000", "162405.575000", "162407.065000", "162408.555000", "162410.045000", "162411.535000", "162413.025000", "162414.515000", "162416.005000", "162417.495000", "162418.985000", "162420.475000", "162421.965000", "162423.455000", "162424.945000", "162426.435000", "162427.925000", "162429.415000", "162430.905000", "162432.395000", "162433.885000", "162435.375000", "162436.865000", "162438.355000", "162439.845000", "162441.335000", "162442.825000", "162444.315000", "162445.805000", "162447.295000", "162448.785000", "162450.275000", "162451.765000", "162453.255000", "162454.745000", "162456.235000", "162457.725000", "162459.215000", "162500.705000", "162502.195000", "162503.685000", "162505.175000", "162506.665000", "162508.155000", "162509.645000", "162511.135000", "162512.625000", "162514.115000", "162515.605000", "162517.095000", "162518.585000", "162520.075000", "162521.565000", "162523.055000", "162524.545000", "162526.035000", "162527.525000", "162529.015000", "162530.505000", "162531.995000", "162533.485000", "162534.975000", "162536.465000", "162537.955000", "162539.445000", "162540.935000", "162542.425000", "162543.915000", "162545.405000", "162546.895000", "162548.385000", "162549.875000", "162551.365000", "162552.855000", "162554.345000", "162555.835000", "162557.325000", "162558.815000", "162600.305000", "162601.795000", "162603.285000", "162604.775000", "162606.265000", "162607.755000", "162609.245000", "162610.735000", "162612.225000", "162613.715000", "162615.205000", "162616.695000", "162618.185000", "162619.675000", "162621.165000", "162622.655000", "162624.145000", "162625.635000", "162627.125000", "162628.615000", "162630.105000", "162631.595000", "162633.085000", "162634.575000", "162636.065000", "162637.555000", "162639.045000", "162640.535000", "162642.025000", "162643.515000", "162645.005000", "162646.495000", "162647.985000", "162649.475000", "162650.965000", "162652.455000", "162653.945000", "162655.435000", "162656.925000", "162658.415000", "162659.905000", "162701.395000", "162702.885000", "162704.375000", "162705.865000", "162707.355000", "162708.845000", "162710.335000", "162711.825000", "162713.315000", "162714.805000", "162716.295000", "162717.785000", "162719.275000", "162720.765000", "162722.255000", "162723.745000", "162725.235000", "162726.725000", "162728.215000", "162729.705000", "162731.195000", "162732.685000", "162734.175000", "162735.665000", "162737.155000", "162738.645000", "162740.135000", "162741.625000", "162743.115000", "162744.605000", "162746.095000", "162747.585000", "162749.075000", "162750.565000", "162752.055000", "162753.545000", "162755.035000", "162756.525000", "162758.015000", "162759.505000", "162800.995000", "162802.485000", "162803.975000", "162805.465000", "162806.955000", "162808.445000", "162809.935000", "162811.425000", "162812.915000", "162814.405000", "162815.895000", "162817.385000", "162818.875000", "162820.365000", "162821.855000", "162823.345000", "162824.835000", "162826.325000", "162827.815000", "162829.305000", "162830.795000", "162832.285000", "162833.775000", "162835.265000", "162836.755000", "162838.245000", "162839.735000", "162841.225000", "162842.715000", "162844.205000", "162845.695000", "162847.185000", "162848.675000", "162850.165000", "162851.655000", "162853.145000", "162854.635000", "162856.125000", "162857.615000", "162859.105000", "162900.595000", "162902.085000", "162903.575000", "162905.065000", "162906.555000", "162908.045000", "162909.535000", "162911.025000", "162912.515000", "162914.005000", "162915.495000", "162916.985000", "162918.475000", "162919.965000", "162921.455000", "162922.945000", "162924.435000", "162925.925000", "162927.415000", "162928.905000", "162930.395000", "162931.885000", "162933.375000", "162934.865000", "162936.355000", "162937.845000", "162939.335000", "162940.825000", "162942.315000", "162943.805000", "162945.295000", "162946.785000", "162948.275000", "162949.765000", "162951.255000", "162952.745000", "162954.235000", "162955.725000", "162957.215000", "162958.705000", "163000.195000", "163001.685000", "163003.175000", "163004.665000", "163006.155000", "163007.645000", "163009.135000", "163010.625000", "163012.115000", "163013.605000", "163015.095000", "163016.585000", "163018.075000", "163019.565000", "163021.055000", "163022.545000", "163024.035000", "163025.525000", "163027.015000", "163028.505000", "163029.995000", "163031.485000", "163032.975000", "163034.465000", "163035.955000", "163037.445000", "163038.935000", "163040.425000", "163041.915000", "163043.405000", "163044.895000", "163046.385000", "163047.875000", "163049.365000", "163050.855000", "163052.345000", "163053.835000", "163055.325000", "163056.815000", "163058.305000", "163059.795000", "163101.285000", "163102.775000", "163104.265000", "163105.755000", "163107.245000", "163108.735000", "163110.225000", "163111.715000", "163113.205000", "163114.695000", "163116.185000", "163117.675000", "163119.165000", "163120.655000", "163122.145000", "163123.635000", "163125.125000", "163126.615000", "163128.105000", "163129.595000", "163131.085000", "163132.575000", "163134.065000", "163135.555000", "163137.045000", "163138.535000", "163140.025000", "163141.515000", "163143.005000", "163144.495000", "163145.985000", "163147.475000", "163148.965000", "163150.455000", "163151.945000", "163153.435000", "163154.925000", "163156.415000", "163157.905000", "163159.395000", "163200.885000", "163202.375000", "163203.865000", "163205.355000", "163206.845000", "163208.335000", "163209.825000", "163211.315000", "163212.805000", "163214.295000", "163215.785000", "163217.275000", "163218.765000", "163220.255000", "163221.745000", "163223.235000", "163224.725000", "163226.215000", "163227.705000", "163229.195000", "163230.685000", "163232.175000", "163233.665000", "163235.155000", "163236.645000", "163238.135000", "163239.625000", "163241.115000", "163242.605000", "163244.095000", "163245.585000", "163247.075000", "163248.565000", "163250.055000", "163251.545000", "163253.035000", "163254.525000", "163256.015000", "163257.505000", "163258.995000", "163300.485000", "163301.975000", "163303.465000", "163304.955000", "163306.445000", "163307.935000", "163309.425000", "163310.915000", "163312.405000", "163313.895000", "163315.385000", "163316.875000", "163318.365000", "163319.855000", "163321.345000", "163322.835000", "163324.325000", "163325.815000", "163327.305000", "163328.795000", "163330.285000", "163331.775000", "163333.265000", "163334.755000", "163336.245000", "163337.735000", "163339.225000", "163340.715000", "163342.205000", "163343.695000", "163345.185000", "163346.675000", "163348.165000", "163349.655000", "163351.145000", "163352.635000", "163354.125000", "163355.615000", "163357.105000", "163358.595000", "163400.085000", "163401.575000", "163403.065000", "163404.555000", "163406.045000", "163407.535000", "163409.025000", "163410.515000", "163412.005000"],
      "ContentTime": ["162443.761000", "162443.765000", "162443.769000", "162443.772000", "162443.775000", "162443.779000", "162443.782000", "162443.785000", "162443.789000", "162443.792000", "162443.795000", "162443.799000", "162443.802000", "162443.817000", "162443.821000", "162443.824000", "162443.828000", "162443.831000", "162443.834000", "162443.838000", "162443.841000", "162443.844000", "162443.847000", "162443.851000", "162443.854000", "162443.857000", "162443.861000", "162503.731000", "162503.735000", "162503.738000", "162503.742000", "162503.746000", "162503.749000", "162503.752000", "162503.756000", "162503.759000", "162503.762000", "162503.765000", "162503.769000", "162503.779000", "162503.783000", "162503.786000", "162503.789000", "162503.793000", "162503.796000", "162503.799000", "162503.802000", "162523.731000", "162523.735000", "162523.738000", "162523.741000", "162523.745000", "162523.748000", "162523.752000", "162523.755000", "162523.758000", "162523.763000", "162523.768000", "162523.772000", "162523.775000", "162523.778000", "162523.782000", "162523.785000", "162523.788000", "162523.792000", "162523.795000", "162523.798000", "162543.731000", "162543.735000", "162543.738000", "162543.742000", "162543.745000", "162543.748000", "162543.752000", "162543.755000", "162543.758000", "162543.762000", "162543.765000", "162543.768000", "162543.772000", "162543.775000", "162543.778000", "162543.782000", "162543.785000", "162543.788000", "162543.792000", "162543.795000", "162543.798000", "162623.731000", "162623.735000", "162623.738000", "162623.741000", "162623.745000", "162623.748000", "162623.751000", "162623.755000", "162623.758000", "162623.761000", "162623.765000", "162623.768000", "162623.771000", "162623.775000", "162623.778000", "162623.781000", "162623.784000", "162623.788000", "162623.791000", "162623.794000", "162623.798000", "162623.801000", "162623.804000", "162623.808000", "162623.811000", "162623.814000", "162623.817000", "162623.821000", "162623.824000", "162623.827000", "162623.831000", "162623.834000", "162703.730000", "162703.734000", "162703.737000", "162703.741000", "162703.744000", "162703.747000", "162703.751000", "162703.754000", "162703.757000", "162703.760000", "162703.764000", "162703.767000", "162703.770000", "162703.774000", "162703.777000", "162703.781000", "162703.784000", "162703.787000", "162703.791000", "162703.794000", "162703.798000", "162703.801000", "162703.804000", "162703.808000", "162703.818000", "162703.821000", "162743.731000", "162743.735000", "162743.738000", "162743.742000", "162743.758000", "162743.761000", "162743.765000", "162743.768000", "162743.772000", "162743.775000", "162743.778000", "162743.782000", "162743.785000", "162743.788000", "162743.791000", "162743.795000", "162743.798000", "162743.801000", "162743.805000", "162743.808000", "162743.811000", "162743.815000", "162743.818000", "162743.821000", "162743.825000", "162743.828000", "162743.831000", "162823.731000", "162823.735000", "162823.738000", "162823.741000", "162823.745000", "162823.748000", "162823.760000", "162823.763000", "162823.766000", "162823.770000", "162823.773000", "162823.777000", "162823.780000", "162823.783000", "162823.787000", "162823.790000", "162823.793000", "162823.797000", "162823.800000", "162823.803000", "162823.807000", "162823.810000", "162823.814000", "162823.817000", "162823.820000", "162823.823000", "162823.827000", "162903.730000", "162903.734000", "162903.737000", "162903.741000", "162903.744000", "162903.747000", "162903.751000", "162903.754000", "162903.757000", "162903.761000", "162903.764000", "162903.767000", "162903.771000", "162903.774000", "162903.777000", "162903.781000", "162903.784000", "162903.787000", "162903.791000", "162903.794000", "162903.797000", "162903.818000", "162903.822000", "162903.825000", "162903.828000", "162903.831000", "162903.835000", "162943.731000", "162943.742000", "162943.745000", "162943.748000", "162943.752000", "162943.755000", "162943.758000", "162943.762000", "162943.765000", "162943.768000", "162943.772000", "162943.775000", "162943.779000", "162943.782000", "162943.785000", "162943.789000", "162943.792000", "162943.795000", "162943.804000", "162943.808000", "162943.811000", "162943.814000", "162943.818000", "162943.821000", "162943.825000", "162943.828000", "162943.831000", "163023.731000", "163023.735000", "163023.738000", "163023.742000", "163023.745000", "163023.748000", "163023.752000", "163023.755000", "163023.758000", "163023.762000", "163023.765000", "163023.768000", "163023.772000", "163023.775000", "163023.778000", "163023.782000", "163023.785000", "163023.788000", "163023.792000", "163023.795000", "163023.798000", "163023.802000", "163023.805000", "163023.808000", "163023.812000", "163023.815000", "163023.818000", "163103.730000", "163103.734000", "163103.737000", "163103.741000", "163103.744000", "163103.749000", "163103.752000", "163103.756000", "163103.759000", "163103.762000", "163103.766000", "163103.769000", "163103.773000", "163103.776000", "163103.779000", "163103.783000", "163103.786000", "163103.789000", "163103.792000", "163103.796000", "163103.799000", "163103.802000", "163103.806000", "163103.809000", "163103.812000", "163103.816000", "163123.730000", "163123.734000", "163123.738000", "163123.741000", "163123.744000", "163123.748000", "163123.751000", "163123.755000", "163123.758000", "163123.761000", "163123.765000", "163123.768000", "163123.771000", "163123.775000", "163203.731000", "163203.735000", "163203.738000", "163203.742000", "163203.745000", "163203.748000", "163203.752000", "163203.755000", "163203.759000", "163203.762000", "163203.765000", "163203.769000", "163203.772000", "163203.775000", "163203.779000", "163203.782000", "163203.785000", "163203.789000", "163203.792000", "163203.795000", "163203.799000", "163203.802000", "163203.805000", "163203.809000", "163203.812000", "163203.815000", "163203.819000", "163243.731000", "163243.735000", "163243.738000", "163243.742000", "163243.745000", "163243.748000", "163243.752000", "163243.755000", "163243.758000", "163243.762000", "163243.765000", "163243.768000", "163243.772000", "163243.775000", "163243.778000", "163243.782000", "163243.785000", "163243.788000", "163243.792000", "163243.795000", "163243.798000", "163243.802000", "163243.807000", "163243.810000", "163243.813000", "163243.816000", "163243.820000", "163323.730000", "163323.734000", "163323.737000", "163323.741000", "163323.744000", "163323.747000", "163323.751000", "163323.754000", "163323.757000", "163323.761000", "163323.764000", "163323.767000", "163323.771000", "163323.774000", "163323.777000", "163323.781000", "163323.784000", "163323.787000", "163323.791000", "163323.794000", "163323.798000", "163323.801000", "163323.804000", "163323.808000", "163323.811000", "163323.815000", "163403.731000", "163403.734000", "163403.738000", "163403.741000", "163403.744000", "163403.748000", "163403.751000", "163403.754000", "163403.758000", "163403.761000", "163403.764000", "163403.768000", "163403.771000", "163403.774000", "163403.778000", "163403.781000", "163403.784000", "163403.788000", "163403.791000", "163403.794000", "163403.797000", "163403.801000", "163403.804000", "163403.807000", "163403.811000", "163403.814000", "163403.817000", "163415.670000", "163415.674000", "163415.677000", "163415.681000", "163415.684000", "163415.688000", "163415.691000", "163415.694000"],
