{
  "AcquisitionMatrixPE": 104,
  "AcquisitionNumber": 1,
  "AcquisitionTime": "18:29:44.037500",
  "BandwidthPerPixelPhaseEncode": 17.17,
  "BaseResolution": 104,
  "BodyPartExamined": "BRAIN",
  "CoilCombinationMethod": "Sum of Squares",
  "ConsistencyInfo": "N4_VE11C_LATEST_20160120",
  "ConversionSoftware": "dcm2niix",
  "ConversionSoftwareVersion": "v1.0.20211006",
  "DerivedVendorReportedEchoSpacing": 0.000560011,
  "DeviceSerialNumber": "167006",
  "DwellTime": 2.1e-06,
  "EchoTime": 0.037,
  "EchoTrainLength": 104,
  "EffectiveEchoSpacing": 0.000560011,
  "FlipAngle": 52,
  "HeudiconvVersion": "0.10.0",
  "ImageComments": "Unaliased MB4/PE3/LB",
  "ImageOrientationPatientDICOM": [0.999447, 0.0270508, 0.019331, -0.0211099, 0.96548, -0.259622],
  "ImageOrientationText": "Tra>Cor(-15.0)>Sag(1.5)",
  "ImageType": [
    "ORIGINAL",
    "PRIMARY",
    "M",
    "MB",
    "ND",
    "MOSAIC"
],
  "ImagingFrequency": 123.259,
  "InPlanePhaseEncodingDirectionDICOM": "COL",
  "InstitutionAddress": "Chemin Queen-Mary 4565,Montreal,District,CA,H3W 1W5",
  "InstitutionName": "IUGM",
  "InstitutionalDepartmentName": "Department",
  "MRAcquisitionType": "2D",
  "MagneticFieldStrength": 3,
  "Manufacturer": "Siemens",
  "ManufacturersModelName": "Prisma_fit",
  "MatrixCoilMode": "SENSE",
  "Modality": "MR",
  "MultibandAccelerationFactor": 4,
  "PartialFourier": 1,
  "PatientPosition": "HFS",
  "PercentPhaseFOV": 100,
  "PercentSampling": 100,
  "PhaseEncodingDirection": "j",
  "PhaseEncodingSteps": 104,
  "PhaseResolution": 1,
  "PixelBandwidth": 2290,
  "ProcedureStepDescription": "games^mario",
  "ProtocolName": "func_task-mario_run-01",
  "PulseSequenceDetails": "%CustomerSeq%\\cmrr_mbep2d_bold",
  "ReceiveCoilActiveElements": "HC1-7;NC1,2",
  "ReceiveCoilName": "HeadNeck_64",
  "ReconMatrixPE": 104,
  "RepetitionTime": 1.49,
  "SAR": 0.0386368,
  "ScanOptions": "FS",
  "ScanningSequence": "EP",
  "SequenceName": "epfid2d1_104",
  "SequenceVariant": "SK\\SS",
  "SeriesDescription": "func_task-mario_run-01",
  "SeriesNumber": 10,
  "ShimSetting": [630, -7211, -8764, 716, 26, -6, 85, -11],
  "SliceThickness": 2,
  "SliceTiming": [0, 0.785, 0.1, 0.8825, 0.1975, 0.98, 0.295, 1.08, 0.3925, 1.1775, 0.49, 1.275, 0.59, 1.3725, 0.6875, 0, 0.785, 0.1, 0.8825, 0.1975, 0.98, 0.295, 1.08, 0.3925, 1.1775, 0.49, 1.275, 0.59, 1.3725, 0.6875, 0, 0.785, 0.1, 0.8825, 0.1975, 0.98, 0.295, 1.08, 0.3925, 1.1775, 0.49, 1.275, 0.59, 1.3725, 0.6875, 0, 0.785, 0.1, 0.8825, 0.1975, 0.98, 0.295, 1.08, 0.3925, 1.1775, 0.49, 1.275, 0.59, 1.3725, 0.6875],
  "SoftwareVersions": "syngo MR E11",
  "SpacingBetweenSlices": 2,
  "StationName": "MRC35049",
  "TaskName": "mario",
  "TotalReadoutTime": 0.0576811,
  "TxRefAmp": 219.393,
  "WipMemBlock": "f630a68b-dfb9-4be9-b1d7-bc91e54e31ef||Sequence: R016 ve11c/master r/e634e98; Dec 19 2017 11:00:25 by eja",
  "dcmmeta_affine": [
    [-1.998894214630127, -0.04221987724304199, 0.05137326940894127, 109.52404022216797],
    [-0.05410163477063179, 1.9309591054916382, -0.5181410312652588, -71.25592041015625],
    [0.03866191208362579, 0.5192441940307617, 1.9310336112976074, -57.511207580566406],
    [0.0, 0.0, 0.0, 1.0]
],
  "dcmmeta_reorient_transform": [
    [0.0, -1.0, 0.0, 103.0],
    [1.0, 0.0, 0.0, 0.0],
    [0.0, 0.0, 1.0, 0.0],
    [0.0, 0.0, 0.0, 1.0]
],
  "dcmmeta_shape": [104, 104, 60, 462],
  "dcmmeta_slice_dim": 2,
  "dcmmeta_version": 0.6,
  "global": {
    "const": {
      "AcquisitionMatrix": [104, 0, 0, 104],
      "AngioFlag": "N",
      "BitsAllocated": 16,
      "BitsStored": 16,
      "BodyPartExamined": "BRAIN",
      "Columns": 832,
      "EchoNumbers": 1,
      "EchoTime": 37.0,
      "EchoTrainLength": 104,
      "FlipAngle": 52.0,
      "HighBit": 15,
      "ImageOrientationPatient": [0.9994471308643, 0.02705081728093, 0.01933095681931, -0.0211099377823, 0.96547953483406, -0.259622106808],
      "ImagePositionPatient": [-817.40486672104, -850.19495716804, 170.90290390486],
      "ImageType": [
        "ORIGINAL",
        "PRIMARY",
        "M",
        "MB",
        "ND",
        "MOSAIC"
],
      "ImagedNucleus": "1H",
      "ImagingFrequency": 123.258848,
      "InPlanePhaseEncodingDirection": "COL",
      "MRAcquisitionType": "2D",
      "MagneticFieldStrength": 3.0,
      "Manufacturer": "SIEMENS",
      "ManufacturerModelName": "Prisma_fit",
      "Modality": "MR",
      "NumberOfAverages": 1.0,
      "NumberOfPhaseEncodingSteps": 104,
      "PercentPhaseFieldOfView": 100.0,
      "PercentSampling": 100.0,
      "PerformedProcedureStepStartTime": "175150.106000",
      "PhotometricInterpretation": "MONOCHROME2",
      "PixelBandwidth": 2290.0,
      "PixelRepresentation": 0,
      "PixelSpacing": [2.0, 2.0],
      "ProtocolName": "func_task-mario_run-01",
      "RepetitionTime": 1490.0,
      "Rows": 832,
      "SAR": 0.03863680892952,
      "SamplesPerPixel": 1,
      "ScanOptions": "FS",
      "ScanningSequence": "EP",
      "SequenceName": "epfid2d1_104",
      "SequenceVariant": [
        "SK",
        "SS"
],
      "SeriesDescription": "func_task-mario_run-01",
      "SeriesNumber": 10,
      "SeriesTime": "183109.963000",
      "SliceLocation": -34.254425282473,
      "SliceThickness": 2.0,
      "SmallestImagePixelValue": 0,
      "SoftwareVersions": "syngo MR E11",
      "SpacingBetweenSlices": 2.0000000553912,
      "SpecificCharacterSet": "ISO_IR 100",
      "StudyID": "1",
      "StudyTime": "175150.039000",
      "TransmitCoilName": "Body",
      "VariableFlipAngleFlag": "N",
      "WindowCenterWidthExplanation": "Algo1",
      "dBdt": 0.0},
    "slices": {}
  },
  "time": {
    "samples": {
      "AcquisitionNumber": [1, 2, 3, 4, 5, 6, 7, 8, 9, 10, 11, 12, 13, 14, 15, 16, 17, 18, 19, 20, 21, 22, 23, 24, 25, 26, 27, 28, 29, 30, 31, 32, 33, 34, 35, 36, 37, 38, 39, 40, 41, 42, 43, 44, 45, 46, 47, 48, 49, 50, 51, 52, 53, 54, 55, 56, 57, 58, 59, 60, 61, 62, 63, 64, 65, 66, 67, 68, 69, 70, 71, 72, 73, 74, 75, 76, 77, 78, 79, 80, 81, 82, 83, 84, 85, 86, 87, 88, 89, 90, 91, 92, 93, 94, 95, 96, 97, 98, 99, 100, 101, 102, 103, 104, 105, 106, 107, 108, 109, 110, 111, 112, 113, 114, 115, 116, 117, 118, 119, 120, 121, 122, 123, 124, 125, 126, 127, 128, 129, 130, 131, 132, 133, 134, 135, 136, 137, 138, 139, 140, 141, 142, 143, 144, 145, 146, 147, 148, 149, 150, 151, 152, 153, 154, 155, 156, 157, 158, 159, 160, 161, 162, 163, 164, 165, 166, 167, 168, 169, 170, 171, 172, 173, 174, 175, 176, 177, 178, 179, 180, 181, 182, 183, 184, 185, 186, 187, 188, 189, 190, 191, 192, 193, 194, 195, 196, 197, 198, 199, 200, 201, 202, 203, 204, 205, 206, 207, 208, 209, 210, 211, 212, 213, 214, 215, 216, 217, 218, 219, 220, 221, 222, 223, 224, 225, 226, 227, 228, 229, 230, 231, 232, 233, 234, 235, 236, 237, 238, 239, 240, 241, 242, 243, 244, 245, 246, 247, 248, 249, 250, 251, 252, 253, 254, 255, 256, 257, 258, 259, 260, 261, 262, 263, 264, 265, 266, 267, 268, 269, 270, 271, 272, 273, 274, 275, 276, 277, 278, 279, 280, 281, 282, 283, 284, 285, 286, 287, 288, 289, 290, 291, 292, 293, 294, 295, 296, 297, 298, 299, 300, 301, 302, 303, 304, 305, 306, 307, 308, 309, 310, 311, 312, 313, 314, 315, 316, 317, 318, 319, 320, 321, 322, 323, 324, 325, 326, 327, 328, 329, 330, 331, 332, 333, 334, 335, 336, 337, 338, 339, 340, 341, 342, 343, 344, 345, 346, 347, 348, 349, 350, 351, 352, 353, 354, 355, 356, 357, 358, 359, 360, 361, 362, 363, 364, 365, 366, 367, 368, 369, 370, 371, 372, 373, 374, 375, 376, 377, 378, 379, 380, 381, 382, 383, 384, 385, 386, 387, 388, 389, 390, 391, 392, 393, 394, 395, 396, 397, 398, 399, 400, 401, 402, 403, 404, 405, 406, 407, 408, 409, 410, 411, 412, 413, 414, 415, 416, 417, 418, 419, 420, 421, 422, 423, 424, 425, 426, 427, 428, 429, 430, 431, 432, 433, 434, 435, 436, 437, 438, 439, 440, 441, 442, 443, 444, 445, 446, 447, 448, 449, 450, 451, 452, 453, 454, 455, 456, 457, 458, 459, 460, 461, 462],
      "AcquisitionTime": ["182944.037500", "182945.527500", "182947.017500", "182948.507500", "182949.997500", "182951.487500", "182952.977500", "182954.467500", "182955.957500", "182957.447500", "182958.937500", "183000.427500", "183001.917500", "183003.407500", "183004.897500", "183006.387500", "183007.877500", "183009.367500", "183010.857500", "183012.347500", "183013.837500", "183015.327500", "183016.817500", "183018.307500", "183019.797500", "183021.287500", "183022.777500", "183024.267500", "183025.757500", "183027.247500", "183028.737500", "183030.227500", "183031.717500", "183033.207500", "183034.697500", "183036.187500", "183037.677500", "183039.167500", "183040.657500", "183042.147500", "183043.637500", "183045.127500", "183046.617500", "183048.107500", "183049.597500", "183051.087500", "183052.577500", "183054.067500", "183055.557500", "183057.047500", "183058.537500", "183100.027500", "183101.517500", "183103.007500", "183104.497500", "183105.987500", "183107.477500", "183108.967500", "183110.457500", "183111.947500", "183113.437500", "183114.927500", "183116.417500", "183117.907500", "183119.397500", "183120.887500", "183122.377500", "183123.867500", "183125.357500", "183126.847500", "183128.337500", "183129.827500", "183131.317500", "183132.807500", "183134.297500", "183135.787500", "183137.277500", "183138.767500", "183140.257500", "183141.747500", "183143.237500", "183144.727500", "183146.217500", "183147.707500", "183149.197500", "183150.687500", "183152.177500", "183153.667500", "183155.157500", "183156.647500", "183158.137500", "183159.627500", "183201.117500", "183202.607500", "183204.097500", "183205.587500", "183207.077500", "183208.567500", "183210.057500", "183211.547500", "183213.037500", "183214.527500", "183216.017500", "183217.507500", "183218.997500", "183220.487500", "183221.977500", "183223.467500", "183224.957500", "183226.447500", "183227.937500", "183229.427500", "183230.917500", "183232.407500", "183233.897500", "183235.387500", "183236.877500", "183238.367500", "183239.857500", "183241.347500", "183242.837500", "183244.327500", "183245.817500", "183247.307500", "183248.797500", "183250.287500", "183251.777500", "183253.267500", "183254.757500", "183256.247500", "183257.737500", "183259.227500", "183300.717500", "183302.207500", "183303.697500", "183305.187500", "183306.677500", "183308.167500", "183309.657500", "183311.147500", "183312.637500", "183314.127500", "183315.617500", "183317.107500", "183318.597500", "183320.087500", "183321.577500", "183323.067500", "183324.557500", "183326.047500", "183327.537500", "183329.027500", "183330.517500", "183332.007500", "183333.497500", "183334.987500", "183336.477500", "183337.967500", "183339.457500", "183340.947500", "183342.437500", "183343.927500", "183345.417500", "183346.907500", "183348.397500", "183349.887500", "183351.377500", "183352.867500", "183354.357500", "183355.847500", "183357.337500", "183358.827500", "183400.317500", "183401.807500", "183403.297500", "183404.787500", "183406.277500", "183407.767500", "183409.257500", "183410.747500", "183412.237500", "183413.727500", "183415.217500", "183416.707500", "183418.197500", "183419.687500", "183421.177500", "183422.667500", "183424.157500", "183425.647500", "183427.137500", "183428.627500", "183430.117500", "183431.607500", "183433.097500", "183434.587500", "183436.077500", "183437.567500", "183439.057500", "183440.547500", "183442.037500", "183443.527500", "183445.017500", "183446.507500", "183447.997500", "183449.487500", "183450.977500", "183452.467500", "183453.957500", "183455.447500", "183456.937500", "183458.427500", "183459.917500", "183501.407500", "183502.897500", "183504.387500", "183505.877500", "183507.367500", "183508.857500", "183510.347500", "183511.837500", "183513.327500", "183514.817500", "183516.307500", "183517.797500", "183519.287500", "183520.777500", "183522.267500", "183523.757500", "183525.247500", "183526.737500", "183528.227500", "183529.717500", "183531.207500", "183532.697500", "183534.187500", "183535.677500", "183537.167500", "183538.657500", "183540.147500", "183541.637500", "183543.127500", "183544.617500", "183546.107500", "183547.597500", "183549.087500", "183550.577500", "183552.067500", "183553.557500", "183555.047500", "183556.537500", "183558.027500", "183559.517500", "183601.007500", "183602.497500", "183603.987500", "183605.477500", "183606.967500", "183608.457500", "183609.947500", "183611.437500", "183612.927500", "183614.417500", "183615.907500", "183617.397500", "183618.887500", "183620.377500", "183621.867500", "183623.357500", "183624.847500", "183626.337500", "183627.827500", "183629.317500", "183630.807500", "183632.297500", "183633.787500", "183635.277500", "183636.767500", "183638.257500", "183639.747500", "183641.237500", "183642.727500", "183644.217500", "183645.707500", "183647.197500", "183648.687500", "183650.177500", "183651.667500", "183653.157500", "183654.647500", "183656.137500", "183657.627500", "183659.117500", "183700.607500", "183702.097500", "183703.587500", "183705.077500", "183706.567500", "183708.057500", "183709.547500", "183711.037500", "183712.527500", "183714.017500", "183715.507500", "183716.997500", "183718.487500", "183719.977500", "183721.467500", "183722.957500", "183724.447500", "183725.937500", "183727.427500", "183728.917500", "183730.407500", "183731.897500", "183733.387500", "183734.877500", "183736.367500", "183737.857500", "183739.347500", "183740.837500", "183742.327500", "183743.817500", "183745.307500", "183746.797500", "183748.287500", "183749.777500", "183751.267500", "183752.757500", "183754.247500", "183755.737500", "183757.227500", "183758.717500", "183800.207500", "183801.697500", "183803.187500", "183804.677500", "183806.167500", "183807.657500", "183809.147500", "183810.637500", "183812.127500", "183813.617500", "183815.107500", "183816.597500", "183818.087500", "183819.577500", "183821.067500", "183822.557500", "183824.047500", "183825.537500", "183827.027500", "183828.517500", "183830.007500", "183831.497500", "183832.987500", "183834.477500", "183835.967500", "183837.457500", "183838.947500", "183840.437500", "183841.927500", "183843.417500", "183844.907500", "183846.397500", "183847.887500", "183849.377500", "183850.867500", "183852.357500", "183853.847500", "183855.337500", "183856.827500", "183858.317500", "183859.807500", "183901.297500", "183902.787500", "183904.277500", "183905.767500", "183907.257500", "183908.747500", "183910.237500", "183911.727500", "183913.217500", "183914.707500", "183916.197500", "183917.687500", "183919.177500", "183920.667500", "183922.157500", "183923.647500", "183925.137500", "183926.627500", "183928.117500", "183929.607500", "183931.097500", "183932.587500", "183934.077500", "183935.567500", "183937.057500", "183938.547500", "183940.037500", "183941.527500", "183943.017500", "183944.507500", "183945.997500", "183947.487500", "183948.977500", "183950.467500", "183951.957500", "183953.447500", "183954.937500", "183956.427500", "183957.917500", "183959.407500", "184000.897500", "184002.387500", "184003.877500", "184005.367500", "184006.857500", "184008.347500", "184009.837500", "184011.327500", "184012.817500", "184014.307500", "184015.797500", "184017.287500", "184018.777500", "184020.267500", "184021.757500", "184023.247500", "184024.737500", "184026.227500", "184027.717500", "184029.207500", "184030.697500", "184032.187500", "184033.677500", "184035.167500", "184036.657500", "184038.147500", "184039.637500", "184041.127500", "184042.617500", "184044.107500", "184045.597500", "184047.087500", "184048.577500", "184050.067500", "184051.557500", "184053.047500", "184054.537500", "184056.027500", "184057.517500", "184059.007500", "184100.497500", "184101.987500", "184103.477500", "184104.967500", "184106.457500", "184107.947500", "184109.437500", "184110.927500"],
      "ContentTime": ["183109.966000", "183109.969000", "183109.973000", "183109.976000", "183109.979000", "183109.982000", "183109.986000", "183109.989000", "183109.992000", "183109.995000", "183110.000000", "183110.003000", "183110.006000", "183110.009000", "183110.013000", "183110.016000", "183110.019000", "183110.023000", "183110.026000", "183110.029000", "183110.032000", "183110.036000", "183110.039000", "183110.042000", "183110.046000", "183110.049000", "183110.052000", "183110.055000", "183110.059000", "183129.928000", "183129.932000", "183129.935000", "183129.949000", "183129.953000", "183129.956000", "183129.959000", "183129.962000", "183129.966000", "183129.969000", "183129.972000", "183129.989000", "183129.992000", "183129.995000", "183130.000000", "183130.003000", "183130.006000", "183130.010000", "183130.013000", "183130.016000", "183149.927000", "183149.930000", "183149.934000", "183149.937000", "183149.940000", "183149.944000", "183149.947000", "183149.950000", "183149.954000", "183149.957000", "183149.960000", "183149.964000", "183149.967000", "183149.970000", "183149.973000", "183149.977000", "183149.980000", "183149.983000", "183149.987000", "183149.990000", "183149.993000", "183209.927000", "183209.932000", "183209.935000", "183209.938000", "183209.942000", "183209.945000", "183209.948000", "183209.951000", "183209.955000", "183209.958000", "183209.961000", "183209.965000", "183209.968000", "183209.971000", "183209.975000", "183209.978000", "183209.981000", "183209.985000", "183209.988000", "183209.991000", "183229.928000", "183229.932000", "183229.935000", "183229.938000", "183229.942000", "183229.945000", "183229.948000", "183229.952000", "183229.955000", "183229.958000", "183229.962000", "183229.965000", "183229.968000", "183229.971000", "183229.975000", "183229.978000", "183229.981000", "183229.985000", "183229.988000", "183229.991000", "183309.928000", "183309.938000", "183309.942000", "183309.945000", "183309.948000", "183309.952000", "183309.955000", "183309.958000", "183309.962000", "183309.965000", "183309.968000", "183309.972000", "183309.975000", "183309.978000", "183309.981000", "183309.985000", "183309.988000", "183309.991000", "183309.995000", "183309.998000", "183310.002000", "183310.006000", "183310.009000", "183310.012000", "183310.015000", "183310.019000", "183310.022000", "183310.025000", "183349.928000", "183349.949000", "183349.953000", "183349.956000", "183349.959000", "183349.963000", "183349.966000", "183349.970000", "183349.973000", "183349.976000", "183349.980000", "183349.983000", "183349.986000", "183349.990000", "183349.993000", "183349.996000", "183350.001000", "183350.004000", "183350.007000", "183350.011000", "183350.014000", "183350.017000", "183350.020000", "183350.024000", "183350.027000", "183350.030000", "183429.928000", "183429.932000", "183429.935000", "183429.938000", "183429.942000", "183429.945000", "183429.949000", "183429.952000", "183429.955000", "183429.959000", "183429.962000", "183429.965000", "183429.968000", "183429.972000", "183429.975000", "183429.978000", "183429.981000", "183429.985000", "183429.988000", "183429.992000", "183429.995000", "183429.998000", "183430.001000", "183430.005000", "183430.008000", "183430.011000", "183430.015000", "183509.928000", "183509.932000", "183509.935000", "183509.939000", "183509.942000", "183509.945000", "183509.948000", "183509.952000", "183509.955000", "183509.958000", "183509.962000", "183509.965000", "183509.969000", "183509.972000", "183509.975000", "183509.979000", "183509.982000", "183509.985000", "183509.989000", "183509.992000", "183509.995000", "183509.998000", "183510.003000", "183510.006000", "183510.010000", "183510.013000", "183510.016000", "183549.928000", "183549.935000", "183549.939000", "183549.942000", "183549.945000", "183549.949000", "183549.952000", "183549.955000", "183549.958000", "183549.962000", "183549.965000", "183549.968000", "183549.972000", "183549.975000", "183549.978000", "183549.982000", "183549.985000", "183549.993000", "183549.996000", "183550.000000", "183550.003000", "183550.007000", "183550.010000", "183550.013000", "183550.028000", "183550.032000", "183550.035000", "183629.927000", "183629.931000", "183629.934000", "183629.937000", "183629.941000", "183629.944000", "183629.947000", "183629.951000", "183629.954000", "183629.957000", "183629.960000", "183629.964000", "183629.967000", "183629.970000", "183629.974000", "183629.977000", "183629.980000", "183629.984000", "183629.987000", "183629.990000", "183629.993000", "183629.997000", "183630.001000", "183630.004000", "183630.008000", "183630.011000", "183630.014000", "183709.928000", "183709.932000", "183709.935000", "183709.938000", "183709.942000", "183709.945000", "183709.949000", "183709.952000", "183709.955000", "183709.959000", "183709.962000", "183709.965000", "183709.968000", "183709.972000", "183709.975000", "183709.978000", "183709.982000", "183709.985000", "183709.988000", "183709.992000", "183709.995000", "183709.998000", "183710.003000", "183710.006000", "183710.009000", "183710.013000", "183710.016000", "183749.929000", "183749.932000", "183749.935000", "183749.939000", "183749.942000", "183749.945000", "183749.949000", "183749.952000", "183749.963000", "183749.967000", "183749.970000", "183749.975000", "183749.978000", "183749.982000", "183749.985000", "183749.989000", "183749.992000", "183749.995000", "183749.998000", "183750.003000", "183750.006000", "183750.009000", "183750.012000", "183750.016000", "183750.019000", "183750.023000", "183829.928000", "183829.946000", "183829.950000", "183829.953000", "183829.956000", "183829.960000", "183829.963000", "183829.966000", "183829.970000", "183829.973000", "183829.976000", "183829.979000", "183829.983000", "183829.986000", "183829.989000", "183829.993000", "183829.996000", "183830.000000", "183830.004000", "183830.007000", "183830.010000", "183830.014000", "183830.017000", "183830.020000", "183830.024000", "183830.027000", "183830.030000", "183909.928000", "183909.932000", "183909.935000", "183909.939000", "183909.942000", "183909.945000", "183909.949000", "183909.952000", "183909.955000", "183909.959000", "183909.962000", "183909.965000", "183909.968000", "183909.972000", "183909.975000", "183909.978000", "183909.982000", "183909.985000", "183909.988000", "183909.992000", "183909.995000", "183909.998000", "183910.002000", "183910.005000", "183910.008000", "183910.012000", "183910.015000", "183949.928000", "183949.932000", "183949.936000", "183949.940000", "183949.943000", "183949.947000", "183949.950000", "183949.954000", "183949.957000", "183949.960000", "183949.964000", "183949.967000", "183949.970000", "183949.974000", "183949.977000", "183949.980000", "183949.984000", "183949.987000", "183949.990000", "183949.994000", "183949.997000", "183950.001000", "183950.004000", "183950.008000", "183950.011000", "183950.015000", "183950.018000", "184029.928000", "184029.932000", "184029.935000", "184029.939000", "184029.942000", "184029.945000", "184029.949000", "184029.952000", "184029.955000", "184029.959000", "184029.962000", "184029.965000", "184029.968000", "184029.972000", "184029.975000", "184029.988000", "184029.992000", "184029.995000", "184029.998000", "184030.002000", "184030.006000", "184030.009000", "184030.012000", "184030.016000", "184030.019000", "184030.022000", "184030.025000", "184109.927000", "184109.931000", "184109.934000", "184109.938000", "184109.941000", "184109.944000", "184109.947000", "184109.951000", "184109.954000", "184109.957000", "184109.961000", "184109.964000", "184109.967000", "184109.971000", "184109.974000", "184109.978000", "184109.981000", "184109.984000", "184109.987000", "184109.991000", "184109.994000", "184109.997000", "184110.002000", "184110.005000", "184110.009000", "184110.012000", "184110.015000", "184113.809000", "184113.813000"],
