{
  "AcquisitionMatrixPE": 104,
  "AcquisitionNumber": 1,
  "AcquisitionTime": "11:24:18.170000",
  "BandwidthPerPixelPhaseEncode": 17.17,
  "BaseResolution": 104,
  "BodyPartExamined": "BRAIN",
  "CoilCombinationMethod": "Sum of Squares",
  "ConsistencyInfo": "N4_VE11C_LATEST_20160120",
  "ConversionSoftware": "dcm2niix",
  "ConversionSoftwareVersion": "v1.0.20211006",
  "DerivedVendorReportedEchoSpacing": 0.000560011,
  "DeviceSerialNumber": "167006",
  "DwellTime": 2.1e-06,
  "EchoTime": 0.037,
  "EchoTime1": 0.037,
  "EchoTime2": 0.001,
  "EchoTrainLength": 104,
  "EffectiveEchoSpacing": 0.000560011,
  "FlipAngle": 52,
  "HeudiconvVersion": "0.10.0",
  "ImageComments": "Unaliased MB4/PE3/LB",
  "ImageOrientationPatientDICOM": [0.999517, 0.0102164, 0.0293564, 0.0071525, 0.843504, -0.537075],
  "ImageOrientationText": "Tra>Cor(-32.5)>Sag(1.7)",
  "ImageType": [
    "ORIGINAL",
    "PRIMARY",
    "P",
    "MB",
    "ND",
    "MOSAIC",
    "PHASE"
],
  "ImagingFrequency": 123.259,
  "InPlanePhaseEncodingDirectionDICOM": "COL",
  "InstitutionAddress": "Chemin Queen-Mary 4565,Montreal,District,CA,H3W 1W5",
  "InstitutionName": "IUGM",
  "InstitutionalDepartmentName": "Department",
  "MRAcquisitionType": "2D",
  "MagneticFieldStrength": 3,
  "Manufacturer": "Siemens",
  "ManufacturersModelName": "Prisma_fit",
  "MatrixCoilMode": "SENSE",
  "Modality": "MR",
  "MultibandAccelerationFactor": 4,
  "PartialFourier": 1,
  "PatientPosition": "HFS",
  "PercentPhaseFOV": 100,
  "PercentSampling": 100,
  "PhaseEncodingDirection": "j",
  "PhaseEncodingSteps": 104,
  "PhaseResolution": 1,
  "PixelBandwidth": 2290,
  "ProcedureStepDescription": "games^mario",
  "ProtocolName": "func_task-mario_run-03",
  "PulseSequenceDetails": "%CustomerSeq%\\cmrr_mbep2d_bold",
  "ReceiveCoilActiveElements": "HC1-7;NC1,2",
  "ReceiveCoilName": "HeadNeck_64",
  "ReconMatrixPE": 104,
  "RepetitionTime": 1.49,
  "SAR": 0.0484013,
  "ScanOptions": "FS",
  "ScanningSequence": "EP",
  "SequenceName": "epfid2d1_104",
  "SequenceVariant": "SK\\SS",
  "SeriesDescription": "func_task-mario_run-03",
  "SeriesNumber": 23,
  "ShimSetting": [623, -7171, -8878, 208, 29, -161, 41, 8],
  "SliceThickness": 2,
  "SliceTiming": [0, 0.785, 0.1, 0.8825, 0.1975, 0.98, 0.295, 1.08, 0.3925, 1.1775, 0.49, 1.275, 0.59, 1.3725, 0.6875, 0, 0.785, 0.1, 0.8825, 0.1975, 0.98, 0.295, 1.08, 0.3925, 1.1775, 0.49, 1.275, 0.59, 1.3725, 0.6875, 0, 0.785, 0.1, 0.8825, 0.1975, 0.98, 0.295, 1.08, 0.3925, 1.1775, 0.49, 1.275, 0.59, 1.3725, 0.6875, 0, 0.785, 0.1, 0.8825, 0.1975, 0.98, 0.295, 1.08, 0.3925, 1.1775, 0.49, 1.275, 0.59, 1.3725, 0.6875],
  "SoftwareVersions": "syngo MR E11",
  "SpacingBetweenSlices": 2,
  "StationName": "MRC35049",
  "TaskName": "mario",
  "TotalReadoutTime": 0.0576811,
  "TxRefAmp": 276.518,
  "WipMemBlock": "38d943b9-70e2-455d-867a-291fa337c9bd||Sequence: R016 ve11c/master r/e634e98; Dec 19 2017 11:00:25 by eja",
  "dcmmeta_affine": [
    [-1.9990335702896118, 0.014304996468126774, 0.06049840897321701, 104.87452697753906],
    [-0.02043275721371174, 1.6870079040527344, -1.0740514993667603, -46.98534393310547],
    [0.058712802827358246, 1.0741506814956665, 1.6860466003417969, -102.60006713867188],
    [0.0, 0.0, 0.0, 1.0]
],
  "dcmmeta_reorient_transform": [
    [0.0, -1.0, 0.0, 103.0],
    [1.0, 0.0, 0.0, 0.0],
    [0.0, 0.0, 1.0, 0.0],
    [0.0, 0.0, 0.0, 1.0]
],
  "dcmmeta_shape": [104, 104, 60, 443],
  "dcmmeta_slice_dim": 2,
  "dcmmeta_version": 0.6,
  "global": {
    "const": {
      "AcquisitionMatrix": [104, 0, 0, 104],
      "AngioFlag": "N",
      "BitsAllocated": 16,
      "BitsStored": 16,
      "BodyPartExamined": "BRAIN",
      "Columns": 832,
      "EchoNumbers": 1,
      "EchoTime": 37.0,
      "EchoTrainLength": 104,
      "FlipAngle": 52.0,
      "HighBit": 15,
      "ImageOrientationPatient": [0.99951679692768, 0.01021637890409, 0.02935640069093, 0.00715249812108, 0.84350396968321, -0.5370753158536],
      "ImagePositionPatient": [-839.20318468785, -748.28488919822, 377.65681759116],
      "ImageType": [
        "ORIGINAL",
        "PRIMARY",
        "P",
        "MB",
        "ND",
        "MOSAIC"
],
      "ImagedNucleus": "1H",
      "ImagingFrequency": 123.258866,
      "InPlanePhaseEncodingDirection": "COL",
      "LargestImagePixelValue": 4095,
      "MRAcquisitionType": "2D",
      "MagneticFieldStrength": 3.0,
      "Manufacturer": "SIEMENS",
      "ManufacturerModelName": "Prisma_fit",
      "Modality": "MR",
      "NumberOfAverages": 1.0,
      "NumberOfPhaseEncodingSteps": 104,
      "PercentPhaseFieldOfView": 100.0,
      "PercentSampling": 100.0,
      "PerformedProcedureStepStartTime": "102958.210000",
      "PhotometricInterpretation": "MONOCHROME2",
      "PixelBandwidth": 2290.0,
      "PixelRepresentation": 0,
      "PixelSpacing": [2.0, 2.0],
      "ProtocolName": "func_task-mario_run-03",
      "RepetitionTime": 1490.0,
      "RescaleIntercept": -4096.0,
      "RescaleSlope": 2.0,
      "RescaleType": "US",
      "Rows": 832,
      "SAR": 0.04840133968183,
      "SamplesPerPixel": 1,
      "ScanOptions": "FS",
      "ScanningSequence": "EP",
      "SequenceName": "epfid2d1_104",
      "SequenceVariant": [
        "SK",
        "SS"
],
      "SeriesDescription": "func_task-mario_run-03",
      "SeriesNumber": 23,
      "SeriesTime": "112524.684000",
      "SliceLocation": -58.089538342082,
      "SliceThickness": 2.0,
      "SmallestImagePixelValue": 0,
      "SoftwareVersions": "syngo MR E11",
      "SpacingBetweenSlices": 1.9999999642975,
      "SpecificCharacterSet": "ISO_IR 100",
      "StudyID": "1",
      "StudyTime": "102958.133000",
      "TransmitCoilName": "Body",
      "VariableFlipAngleFlag": "N",
      "WindowCenterWidthExplanation": "Algo1",
      "dBdt": 0.0},
    "slices": {}
  },
  "time": {
    "samples": {
      "AcquisitionNumber": [1, 2, 3, 4, 5, 6, 7, 8, 9, 10, 11, 12, 13, 14, 15, 16, 17, 18, 19, 20, 21, 22, 23, 24, 25, 26, 27, 28, 29, 30, 31, 32, 33, 34, 35, 36, 37, 38, 39, 40, 41, 42, 43, 44, 45, 46, 47, 48, 49, 50, 51, 52, 53, 54, 55, 56, 57, 58, 59, 60, 61, 62, 63, 64, 65, 66, 67, 68, 69, 70, 71, 72, 73, 74, 75, 76, 77, 78, 79, 80, 81, 82, 83, 84, 85, 86, 87, 88, 89, 90, 91, 92, 93, 94, 95, 96, 97, 98, 99, 100, 101, 102, 103, 104, 105, 106, 107, 108, 109, 110, 111, 112, 113, 114, 115, 116, 117, 118, 119, 120, 121, 122, 123, 124, 125, 126, 127, 128, 129, 130, 131, 132, 133, 134, 135, 136, 137, 138, 139, 140, 141, 142, 143, 144, 145, 146, 147, 148, 149, 150, 151, 152, 153, 154, 155, 156, 157, 158, 159, 160, 161, 162, 163, 164, 165, 166, 167, 168, 169, 170, 171, 172, 173, 174, 175, 176, 177, 178, 179, 180, 181, 182, 183, 184, 185, 186, 187, 188, 189, 190, 191, 192, 193, 194, 195, 196, 197, 198, 199, 200, 201, 202, 203, 204, 205, 206, 207, 208, 209, 210, 211, 212, 213, 214, 215, 216, 217, 218, 219, 220, 221, 222, 223, 224, 225, 226, 227, 228, 229, 230, 231, 232, 233, 234, 235, 236, 237, 238, 239, 240, 241, 242, 243, 244, 245, 246, 247, 248, 249, 250, 251, 252, 253, 254, 255, 256, 257, 258, 259, 260, 261, 262, 263, 264, 265, 266, 267, 268, 269, 270, 271, 272, 273, 274, 275, 276, 277, 278, 279, 280, 281, 282, 283, 284, 285, 286, 287, 288, 289, 290, 291, 292, 293, 294, 295, 296, 297, 298, 299, 300, 301, 302, 303, 304, 305, 306, 307, 308, 309, 310, 311, 312, 313, 314, 315, 316, 317, 318, 319, 320, 321, 322, 323, 324, 325, 326, 327, 328, 329, 330, 331, 332, 333, 334, 335, 336, 337, 338, 339, 340, 341, 342, 343, 344, 345, 346, 347, 348, 349, 350, 351, 352, 353, 354, 355, 356, 357, 358, 359, 360, 361, 362, 363, 364, 365, 366, 367, 368, 369, 370, 371, 372, 373, 374, 375, 376, 377, 378, 379, 380, 381, 382, 383, 384, 385, 386, 387, 388, 389, 390, 391, 392, 393, 394, 395, 396, 397, 398, 399, 400, 401, 402, 403, 404, 405, 406, 407, 408, 409, 410, 411, 412, 413, 414, 415, 416, 417, 418, 419, 420, 421, 422, 423, 424, 425, 426, 427, 428, 429, 430, 431, 432, 433, 434, 435, 436, 437, 438, 439, 440, 441, 442, 443],
      "AcquisitionTime": ["112418.170000", "112419.660000", "112421.150000", "112422.640000", "112424.130000", "112425.620000", "112427.110000", "112428.600000", "112430.090000", "112431.580000", "112433.070000", "112434.560000", "112436.050000", "112437.540000", "112439.030000", "112440.520000", "112442.010000", "112443.500000", "112444.990000", "112446.480000", "112447.970000", "112449.460000", "112450.950000", "112452.440000", "112453.930000", "112455.420000", "112456.910000", "112458.400000", "112459.890000", "112501.380000", "112502.870000", "112504.360000", "112505.850000", "112507.340000", "112508.830000", "112510.320000", "112511.810000", "112513.300000", "112514.790000", "112516.280000", "112517.770000", "112519.260000", "112520.750000", "112522.240000", "112523.730000", "112525.220000", "112526.710000", "112528.200000", "112529.690000", "112531.180000", "112532.670000", "112534.160000", "112535.650000", "112537.140000", "112538.630000", "112540.120000", "112541.610000", "112543.100000", "112544.590000", "112546.080000", "112547.570000", "112549.060000", "112550.550000", "112552.040000", "112553.530000", "112555.020000", "112556.510000", "112558.000000", "112559.490000", "112600.980000", "112602.470000", "112603.960000", "112605.450000", "112606.940000", "112608.430000", "112609.920000", "112611.410000", "112612.900000", "112614.390000", "112615.880000", "112617.370000", "112618.860000", "112620.350000", "112621.840000", "112623.330000", "112624.820000", "112626.310000", "112627.800000", "112629.290000", "112630.780000", "112632.270000", "112633.760000", "112635.250000", "112636.740000", "112638.230000", "112639.720000", "112641.210000", "112642.700000", "112644.190000", "112645.680000", "112647.170000", "112648.660000", "112650.150000", "112651.640000", "112653.130000", "112654.620000", "112656.110000", "112657.600000", "112659.090000", "112700.580000", "112702.070000", "112703.560000", "112705.050000", "112706.540000", "112708.030000", "112709.520000", "112711.010000", "112712.500000", "112713.990000", "112715.480000", "112716.970000", "112718.460000", "112719.950000", "112721.440000", "112722.930000", "112724.420000", "112725.910000", "112727.400000", "112728.890000", "112730.380000", "112731.870000", "112733.360000", "112734.850000", "112736.340000", "112737.830000", "112739.320000", "112740.810000", "112742.300000", "112743.790000", "112745.280000", "112746.770000", "112748.260000", "112749.750000", "112751.240000", "112752.730000", "112754.220000", "112755.710000", "112757.200000", "112758.690000", "112800.180000", "112801.670000", "112803.160000", "112804.650000", "112806.140000", "112807.630000", "112809.120000", "112810.610000", "112812.100000", "112813.590000", "112815.080000", "112816.570000", "112818.060000", "112819.550000", "112821.040000", "112822.530000", "112824.020000", "112825.510000", "112827.000000", "112828.490000", "112829.980000", "112831.470000", "112832.960000", "112834.450000", "112835.940000", "112837.430000", "112838.920000", "112840.410000", "112841.900000", "112843.390000", "112844.880000", "112846.370000", "112847.860000", "112849.350000", "112850.840000", "112852.330000", "112853.820000", "112855.310000", "112856.800000", "112858.290000", "112859.780000", "112901.270000", "112902.760000", "112904.250000", "112905.740000", "112907.230000", "112908.720000", "112910.210000", "112911.700000", "112913.190000", "112914.680000", "112916.170000", "112917.660000", "112919.150000", "112920.640000", "112922.130000", "112923.620000", "112925.110000", "112926.600000", "112928.090000", "112929.580000", "112931.070000", "112932.560000", "112934.050000", "112935.540000", "112937.030000", "112938.520000", "112940.010000", "112941.500000", "112942.990000", "112944.480000", "112945.970000", "112947.460000", "112948.950000", "112950.440000", "112951.930000", "112953.420000", "112954.910000", "112956.400000", "112957.890000", "112959.380000", "113000.870000", "113002.360000", "113003.850000", "113005.340000", "113006.830000", "113008.320000", "113009.810000", "113011.300000", "113012.790000", "113014.280000", "113015.770000", "113017.260000", "113018.750000", "113020.240000", "113021.730000", "113023.220000", "113024.710000", "113026.200000", "113027.690000", "113029.180000", "113030.670000", "113032.160000", "113033.650000", "113035.140000", "113036.630000", "113038.120000", "113039.610000", "113041.100000", "113042.590000", "113044.080000", "113045.570000", "113047.060000", "113048.550000", "113050.040000", "113051.530000", "113053.020000", "113054.510000", "113056.000000", "113057.490000", "113058.980000", "113100.470000", "113101.960000", "113103.450000", "113104.940000", "113106.430000", "113107.920000", "113109.410000", "113110.900000", "113112.390000", "113113.880000", "113115.370000", "113116.860000", "113118.350000", "113119.840000", "113121.330000", "113122.820000", "113124.310000", "113125.800000", "113127.290000", "113128.780000", "113130.270000", "113131.760000", "113133.250000", "113134.740000", "113136.230000", "113137.720000", "113139.210000", "113140.700000", "113142.190000", "113143.680000", "113145.170000", "113146.660000", "113148.150000", "113149.640000", "113151.130000", "113152.620000", "113154.110000", "113155.600000", "113157.090000", "113158.580000", "113200.070000", "113201.560000", "113203.050000", "113204.540000", "113206.030000", "113207.520000", "113209.010000", "113210.500000", "113211.990000", "113213.480000", "113214.970000", "113216.460000", "113217.950000", "113219.440000", "113220.930000", "113222.420000", "113223.910000", "113225.400000", "113226.890000", "113228.380000", "113229.870000", "113231.360000", "113232.850000", "113234.340000", "113235.830000", "113237.320000", "113238.810000", "113240.300000", "113241.790000", "113243.280000", "113244.770000", "113246.260000", "113247.750000", "113249.240000", "113250.730000", "113252.220000", "113253.710000", "113255.200000", "113256.690000", "113258.180000", "113259.670000", "113301.160000", "113302.650000", "113304.140000", "113305.630000", "113307.120000", "113308.610000", "113310.100000", "113311.590000", "113313.080000", "113314.570000", "113316.060000", "113317.550000", "113319.040000", "113320.530000", "113322.020000", "113323.510000", "113325.000000", "113326.490000", "113327.980000", "113329.470000", "113330.960000", "113332.450000", "113333.940000", "113335.430000", "113336.920000", "113338.410000", "113339.900000", "113341.390000", "113342.880000", "113344.370000", "113345.860000", "113347.350000", "113348.840000", "113350.330000", "113351.820000", "113353.310000", "113354.800000", "113356.290000", "113357.780000", "113359.270000", "113400.760000", "113402.250000", "113403.740000", "113405.230000", "113406.720000", "113408.210000", "113409.700000", "113411.190000", "113412.680000", "113414.170000", "113415.660000", "113417.150000", "113418.640000", "113420.130000", "113421.620000", "113423.110000", "113424.600000", "113426.090000", "113427.580000", "113429.070000", "113430.560000", "113432.050000", "113433.540000", "113435.030000", "113436.520000", "113438.010000", "113439.500000", "113440.990000", "113442.480000", "113443.970000", "113445.460000", "113446.950000", "113448.440000", "113449.930000", "113451.420000", "113452.910000", "113454.400000", "113455.890000", "113457.380000", "113458.870000", "113500.360000", "113501.850000", "113503.340000", "113504.830000", "113506.320000", "113507.810000", "113509.300000", "113510.790000", "113512.280000", "113513.770000", "113515.260000", "113516.750000"],
      "ContentTime": ["112524.686000", "112524.689000", "112524.691000", "112524.694000", "112524.696000", "112524.699000", "112524.701000", "112524.704000", "112524.706000", "112524.709000", "112524.711000", "112524.714000", "112524.716000", "112544.678000", "112544.680000", "112544.683000", "112544.685000", "112544.688000", "112544.690000", "112544.693000", "112544.695000", "112544.698000", "112544.700000", "112544.703000", "112544.705000", "112544.708000", "112544.711000", "112544.713000", "112544.715000", "112544.718000", "112544.721000", "112544.723000", "112544.725000", "112604.688000", "112604.691000", "112604.693000", "112604.695000", "112604.698000", "112604.701000", "112604.703000", "112604.705000", "112604.708000", "112604.711000", "112604.713000", "112604.715000", "112604.718000", "112604.721000", "112604.723000", "112604.726000", "112604.728000", "112604.731000", "112604.733000", "112604.736000", "112624.675000", "112624.678000", "112624.681000", "112624.683000", "112624.686000", "112624.697000", "112624.700000", "112624.702000", "112624.705000", "112624.707000", "112624.710000", "112624.712000", "112624.715000", "112624.717000", "112624.720000", "112624.722000", "112624.725000", "112624.727000", "112624.730000", "112624.732000", "112644.681000", "112644.683000", "112644.686000", "112644.688000", "112644.691000", "112644.693000", "112644.696000", "112644.698000", "112644.701000", "112644.704000", "112644.706000", "112644.708000", "112644.711000", "112644.713000", "112644.716000", "112644.718000", "112644.721000", "112644.724000", "112644.726000", "112644.729000", "112644.731000", "112725.060000", "112725.063000", "112725.065000", "112725.068000", "112725.070000", "112725.073000", "112725.076000", "112725.078000", "112725.081000", "112725.083000", "112725.086000", "112725.088000", "112725.091000", "112725.093000", "112725.096000", "112725.098000", "112725.101000", "112725.103000", "112725.106000", "112725.108000", "112725.111000", "112725.113000", "112725.116000", "112725.118000", "112725.121000", "112725.123000", "112725.126000", "112725.128000", "112725.131000", "112725.134000", "112804.713000", "112804.716000", "112804.719000", "112804.721000", "112804.724000", "112804.726000", "112804.729000", "112804.731000", "112804.734000", "112804.736000", "112804.739000", "112804.741000", "112804.744000", "112804.747000", "112804.749000", "112804.752000", "112804.754000", "112804.757000", "112804.759000", "112804.762000", "112804.764000", "112804.767000", "112804.769000", "112804.772000", "112804.774000", "112804.777000", "112804.779000", "112844.708000", "112844.711000", "112844.714000", "112844.716000", "112844.719000", "112844.721000", "112844.724000", "112844.726000", "112844.729000", "112844.731000", "112844.734000", "112844.736000", "112844.739000", "112844.741000", "112844.744000", "112844.746000", "112844.749000", "112844.751000", "112844.758000", "112844.760000", "112844.763000", "112844.765000", "112844.768000", "112844.829000", "112844.832000", "112844.834000", "112844.837000", "112924.693000", "112924.696000", "112924.698000", "112924.701000", "112924.703000", "112924.706000", "112924.708000", "112924.711000", "112924.714000", "112924.716000", "112924.719000", "112924.721000", "112924.724000", "112924.726000", "112924.729000", "112924.731000", "112924.734000", "112924.736000", "112924.739000", "112924.741000", "112924.744000", "112924.746000", "112924.749000", "112924.751000", "112924.754000", "112924.756000", "112924.759000", "113004.707000", "113004.710000", "113004.713000", "113004.715000", "113004.718000", "113004.720000", "113004.723000", "113004.725000", "113004.728000", "113004.730000", "113004.733000", "113004.735000", "113004.738000", "113004.740000", "113004.743000", "113004.746000", "113004.748000", "113004.750000", "113004.753000", "113004.756000", "113004.758000", "113004.760000", "113004.763000", "113004.766000", "113004.768000", "113004.811000", "113004.814000", "113044.703000", "113044.706000", "113044.708000", "113044.711000", "113044.713000", "113044.722000", "113044.724000", "113044.726000", "113044.729000", "113044.732000", "113044.734000", "113044.737000", "113044.739000", "113044.742000", "113044.744000", "113044.747000", "113044.749000", "113044.752000", "113044.754000", "113044.757000", "113044.759000", "113044.762000", "113044.765000", "113044.767000", "113044.840000", "113044.843000", "113124.711000", "113124.714000", "113124.716000", "113124.719000", "113124.721000", "113124.724000", "113124.726000", "113124.729000", "113124.732000", "113124.734000", "113124.737000", "113124.739000", "113124.742000", "113124.744000", "113124.747000", "113124.749000", "113124.752000", "113124.754000", "113124.757000", "113124.759000", "113124.762000", "113124.764000", "113124.767000", "113124.789000", "113124.793000", "113124.796000", "113124.798000", "113204.709000", "113204.712000", "113204.714000", "113204.717000", "113204.720000", "113204.722000", "113204.725000", "113204.727000", "113204.730000", "113204.732000", "113204.735000", "113204.737000", "113204.740000", "113204.742000", "113204.745000", "113204.747000", "113204.750000", "113204.752000", "113204.755000", "113204.757000", "113204.760000", "113204.762000", "113204.765000", "113204.768000", "113204.828000", "113204.831000", "113204.834000", "113244.740000", "113244.743000", "113244.745000", "113244.748000", "113244.750000", "113244.753000", "113244.755000", "113244.758000", "113244.761000", "113244.763000", "113244.766000", "113244.768000", "113244.771000", "113244.774000", "113244.776000", "113244.779000", "113244.781000", "113244.784000", "113244.786000", "113244.789000", "113244.791000", "113244.794000", "113244.796000", "113244.799000", "113244.802000", "113244.804000", "113244.807000", "113324.713000", "113324.716000", "113324.718000", "113324.721000", "113324.723000", "113324.726000", "113324.728000", "113324.731000", "113324.733000", "113324.736000", "113324.739000", "113324.741000", "113324.744000", "113324.746000", "113324.749000", "113324.751000", "113324.754000", "113324.756000", "113324.759000", "113324.761000", "113324.764000", "113324.766000", "113324.808000", "113324.811000", "113324.813000", "113324.816000", "113324.818000", "113404.698000", "113404.701000", "113404.703000", "113404.706000", "113404.709000", "113404.711000", "113404.714000", "113404.716000", "113404.719000", "113404.721000", "113404.724000", "113404.726000", "113404.729000", "113404.731000", "113404.734000", "113404.736000", "113404.739000", "113404.741000", "113404.744000", "113404.746000", "113404.749000", "113404.752000", "113404.754000", "113404.756000", "113404.759000", "113404.762000", "113404.764000", "113444.707000", "113444.710000", "113444.713000", "113444.715000", "113444.718000", "113444.720000", "113444.723000", "113444.725000", "113444.728000", "113444.730000", "113444.733000", "113444.735000", "113444.738000", "113444.740000", "113444.743000", "113444.746000", "113444.748000", "113444.751000", "113444.753000", "113444.756000", "113444.758000", "113444.761000", "113444.763000", "113444.766000", "113444.833000", "113444.847000", "113444.850000", "113519.565000", "113519.568000", "113519.571000", "113519.574000", "113519.576000", "113519.579000", "113519.581000", "113519.584000", "113519.586000", "113519.589000", "113519.591000", "113519.594000", "113519.596000", "113519.599000", "113519.601000", "113519.604000", "113519.606000", "113519.609000", "113519.611000", "113519.614000", "113519.617000", "113519.619000", "113519.622000"],
