{
  "AcquisitionMatrixPE": 104,
  "AcquisitionNumber": 1,
  "AcquisitionTime": "10:53:29.250000",
  "BandwidthPerPixelPhaseEncode": 17.17,
  "BaseResolution": 104,
  "BodyPartExamined": "BRAIN",
  "CoilCombinationMethod": "Sum of Squares",
  "ConsistencyInfo": "N4_VE11C_LATEST_20160120",
  "ConversionSoftware": "dcm2niix",
  "ConversionSoftwareVersion": "v1.0.20211006",
  "DerivedVendorReportedEchoSpacing": 0.000560011,
  "DeviceSerialNumber": "167006",
  "DwellTime": 2.1e-06,
  "EchoTime": 0.037,
  "EchoTrainLength": 104,
  "EffectiveEchoSpacing": 0.000560011,
  "FlipAngle": 52,
  "HeudiconvVersion": "0.10.0",
  "ImageComments": "Unaliased MB4/PE3/LB",
  "ImageOrientationPatientDICOM": [0.999517, 0.0102164, 0.0293564, 0.0071525, 0.843504, -0.537075],
  "ImageOrientationText": "Tra>Cor(-32.5)>Sag(1.7)",
  "ImageType": [
    "ORIGINAL",
    "PRIMARY",
    "M",
    "MB",
    "ND",
    "MOSAIC"
],
  "ImagingFrequency": 123.259,
  "InPlanePhaseEncodingDirectionDICOM": "COL",
  "InstitutionAddress": "Chemin Queen-Mary 4565,Montreal,District,CA,H3W 1W5",
  "InstitutionName": "IUGM",
  "InstitutionalDepartmentName": "Department",
  "MRAcquisitionType": "2D",
  "MagneticFieldStrength": 3,
  "Manufacturer": "Siemens",
  "ManufacturersModelName": "Prisma_fit",
  "MatrixCoilMode": "SENSE",
  "Modality": "MR",
  "MultibandAccelerationFactor": 4,
  "PartialFourier": 1,
  "PatientPosition": "HFS",
  "PercentPhaseFOV": 100,
  "PercentSampling": 100,
  "PhaseEncodingDirection": "j",
  "PhaseEncodingSteps": 104,
  "PhaseResolution": 1,
  "PixelBandwidth": 2290,
  "ProcedureStepDescription": "games^mario",
  "ProtocolName": "func_task-mario_run-01",
  "PulseSequenceDetails": "%CustomerSeq%\\cmrr_mbep2d_bold",
  "ReceiveCoilActiveElements": "HC1-7;NC1,2",
  "ReceiveCoilName": "HeadNeck_64",
  "ReconMatrixPE": 104,
  "RepetitionTime": 1.49,
  "SAR": 0.0484013,
  "ScanOptions": "FS",
  "ScanningSequence": "EP",
  "SequenceName": "epfid2d1_104",
  "SequenceVariant": "SK\\SS",
  "SeriesDescription": "func_task-mario_run-01",
  "SeriesNumber": 13,
  "ShimSetting": [623, -7171, -8878, 208, 29, -161, 41, 8],
  "SliceThickness": 2,
  "SliceTiming": [0, 0.7825, 0.0975, 0.88, 0.195, 0.98, 0.2925, 1.0775, 0.3925, 1.175, 0.49, 1.2725, 0.5875, 1.37, 0.685, 0, 0.7825, 0.0975, 0.88, 0.195, 0.98, 0.2925, 1.0775, 0.3925, 1.175, 0.49, 1.2725, 0.5875, 1.37, 0.685, 0, 0.7825, 0.0975, 0.88, 0.195, 0.98, 0.2925, 1.0775, 0.3925, 1.175, 0.49, 1.2725, 0.5875, 1.37, 0.685, 0, 0.7825, 0.0975, 0.88, 0.195, 0.98, 0.2925, 1.0775, 0.3925, 1.175, 0.49, 1.2725, 0.5875, 1.37, 0.685],
  "SoftwareVersions": "syngo MR E11",
  "SpacingBetweenSlices": 2,
  "StationName": "MRC35049",
  "TaskName": "mario",
  "TotalReadoutTime": 0.0576811,
  "TxRefAmp": 276.518,
  "WipMemBlock": "1420feb3-9098-4309-8efc-0cd55a66d8da||Sequence: R016 ve11c/master r/e634e98; Dec 19 2017 11:00:25 by eja",
  "dcmmeta_affine": [
    [-1.9990335702896118, 0.014304996468126774, 0.06049840897321701, 104.87452697753906],
    [-0.02043275721371174, 1.6870079040527344, -1.0740514993667603, -46.98534393310547],
    [0.058712802827358246, 1.0741506814956665, 1.6860466003417969, -102.60006713867188],
    [0.0, 0.0, 0.0, 1.0]
],
  "dcmmeta_reorient_transform": [
    [0.0, -1.0, 0.0, 103.0],
    [1.0, 0.0, 0.0, 0.0],
    [0.0, 0.0, 1.0, 0.0],
    [0.0, 0.0, 0.0, 1.0]
],
  "dcmmeta_shape": [104, 104, 60, 427],
  "dcmmeta_slice_dim": 2,
  "dcmmeta_version": 0.6,
  "global": {
    "const": {
      "AcquisitionMatrix": [104, 0, 0, 104],
      "AngioFlag": "N",
      "BitsAllocated": 16,
      "BitsStored": 16,
      "BodyPartExamined": "BRAIN",
      "Columns": 832,
      "EchoNumbers": 1,
      "EchoTime": 37.0,
      "EchoTrainLength": 104,
      "FlipAngle": 52.0,
      "HighBit": 15,
      "ImageOrientationPatient": [0.99951679692768, 0.01021637890409, 0.02935640069093, 0.00715249812108, 0.84350396968321, -0.5370753158536],
      "ImagePositionPatient": [-839.20318468785, -748.28488919822, 377.65681759116],
      "ImageType": [
        "ORIGINAL",
        "PRIMARY",
        "M",
        "MB",
        "ND",
        "MOSAIC"
],
      "ImagedNucleus": "1H",
      "ImagingFrequency": 123.25885,
      "InPlanePhaseEncodingDirection": "COL",
      "MRAcquisitionType": "2D",
      "MagneticFieldStrength": 3.0,
      "Manufacturer": "SIEMENS",
      "ManufacturerModelName": "Prisma_fit",
      "Modality": "MR",
      "NumberOfAverages": 1.0,
      "NumberOfPhaseEncodingSteps": 104,
      "PercentPhaseFieldOfView": 100.0,
      "PercentSampling": 100.0,
      "PerformedProcedureStepStartTime": "102958.210000",
      "PhotometricInterpretation": "MONOCHROME2",
      "PixelBandwidth": 2290.0,
      "PixelRepresentation": 0,
      "PixelSpacing": [2.0, 2.0],
      "ProtocolName": "func_task-mario_run-01",
      "RepetitionTime": 1490.0,
      "Rows": 832,
      "SAR": 0.04840133968183,
      "SamplesPerPixel": 1,
      "ScanOptions": "FS",
      "ScanningSequence": "EP",
      "SequenceName": "epfid2d1_104",
      "SequenceVariant": [
        "SK",
        "SS"
],
      "SeriesDescription": "func_task-mario_run-01",
      "SeriesNumber": 13,
      "SeriesTime": "105444.592000",
      "SliceLocation": -58.089538342082,
      "SliceThickness": 2.0,
      "SmallestImagePixelValue": 0,
      "SoftwareVersions": "syngo MR E11",
      "SpacingBetweenSlices": 1.9999999642975,
      "SpecificCharacterSet": "ISO_IR 100",
      "StudyID": "1",
      "StudyTime": "102958.133000",
      "TransmitCoilName": "Body",
      "VariableFlipAngleFlag": "N",
      "WindowCenterWidthExplanation": "Algo1",
      "dBdt": 0.0},
    "slices": {}
  },
  "time": {
    "samples": {
      "AcquisitionNumber": [1, 2, 3, 4, 5, 6, 7, 8, 9, 10, 11, 12, 13, 14, 15, 16, 17, 18, 19, 20, 21, 22, 23, 24, 25, 26, 27, 28, 29, 30, 31, 32, 33, 34, 35, 36, 37, 38, 39, 40, 41, 42, 43, 44, 45, 46, 47, 48, 49, 50, 51, 52, 53, 54, 55, 56, 57, 58, 59, 60, 61, 62, 63, 64, 65, 66, 67, 68, 69, 70, 71, 72, 73, 74, 75, 76, 77, 78, 79, 80, 81, 82, 83, 84, 85, 86, 87, 88, 89, 90, 91, 92, 93, 94, 95, 96, 97, 98, 99, 100, 101, 102, 103, 104, 105, 106, 107, 108, 109, 110, 111, 112, 113, 114, 115, 116, 117, 118, 119, 120, 121, 122, 123, 124, 125, 126, 127, 128, 129, 130, 131, 132, 133, 134, 135, 136, 137, 138, 139, 140, 141, 142, 143, 144, 145, 146, 147, 148, 149, 150, 151, 152, 153, 154, 155, 156, 157, 158, 159, 160, 161, 162, 163, 164, 165, 166, 167, 168, 169, 170, 171, 172, 173, 174, 175, 176, 177, 178, 179, 180, 181, 182, 183, 184, 185, 186, 187, 188, 189, 190, 191, 192, 193, 194, 195, 196, 197, 198, 199, 200, 201, 202, 203, 204, 205, 206, 207, 208, 209, 210, 211, 212, 213, 214, 215, 216, 217, 218, 219, 220, 221, 222, 223, 224, 225, 226, 227, 228, 229, 230, 231, 232, 233, 234, 235, 236, 237, 238, 239, 240, 241, 242, 243, 244, 245, 246, 247, 248, 249, 250, 251, 252, 253, 254, 255, 256, 257, 258, 259, 260, 261, 262, 263, 264, 265, 266, 267, 268, 269, 270, 271, 272, 273, 274, 275, 276, 277, 278, 279, 280, 281, 282, 283, 284, 285, 286, 287, 288, 289, 290, 291, 292, 293, 294, 295, 296, 297, 298, 299, 300, 301, 302, 303, 304, 305, 306, 307, 308, 309, 310, 311, 312, 313, 314, 315, 316, 317, 318, 319, 320, 321, 322, 323, 324, 325, 326, 327, 328, 329, 330, 331, 332, 333, 334, 335, 336, 337, 338, 339, 340, 341, 342, 343, 344, 345, 346, 347, 348, 349, 350, 351, 352, 353, 354, 355, 356, 357, 358, 359, 360, 361, 362, 363, 364, 365, 366, 367, 368, 369, 370, 371, 372, 373, 374, 375, 376, 377, 378, 379, 380, 381, 382, 383, 384, 385, 386, 387, 388, 389, 390, 391, 392, 393, 394, 395, 396, 397, 398, 399, 400, 401, 402, 403, 404, 405, 406, 407, 408, 409, 410, 411, 412, 413, 414, 415, 416, 417, 418, 419, 420, 421, 422, 423, 424, 425, 426, 427],
      "AcquisitionTime": ["105329.250000", "105330.740000", "105332.230000", "105333.720000", "105335.210000", "105336.700000", "105338.190000", "105339.680000", "105341.170000", "105342.660000", "105344.150000", "105345.640000", "105347.130000", "105348.620000", "105350.110000", "105351.600000", "105353.090000", "105354.580000", "105356.070000", "105357.560000", "105359.050000", "105400.540000", "105402.030000", "105403.520000", "105405.010000", "105406.500000", "105407.990000", "105409.480000", "105410.970000", "105412.460000", "105413.950000", "105415.440000", "105416.930000", "105418.420000", "105419.910000", "105421.400000", "105422.890000", "105424.380000", "105425.870000", "105427.360000", "105428.850000", "105430.340000", "105431.830000", "105433.320000", "105434.810000", "105436.300000", "105437.790000", "105439.280000", "105440.770000", "105442.260000", "105443.750000", "105445.240000", "105446.730000", "105448.220000", "105449.710000", "105451.200000", "105452.690000", "105454.180000", "105455.670000", "105457.160000", "105458.650000", "105500.140000", "105501.630000", "105503.120000", "105504.610000", "105506.100000", "105507.590000", "105509.080000", "105510.570000", "105512.060000", "105513.550000", "105515.040000", "105516.530000", "105518.020000", "105519.510000", "105521.000000", "105522.490000", "105523.980000", "105525.470000", "105526.960000", "105528.450000", "105529.940000", "105531.430000", "105532.920000", "105534.410000", "105535.900000", "105537.390000", "105538.880000", "105540.370000", "105541.860000", "105543.350000", "105544.840000", "105546.330000", "105547.820000", "105549.310000", "105550.800000", "105552.290000", "105553.780000", "105555.270000", "105556.760000", "105558.250000", "105559.740000", "105601.230000", "105602.720000", "105604.210000", "105605.700000", "105607.190000", "105608.680000", "105610.170000", "105611.660000", "105613.150000", "105614.640000", "105616.130000", "105617.620000", "105619.110000", "105620.600000", "105622.090000", "105623.580000", "105625.070000", "105626.560000", "105628.050000", "105629.540000", "105631.030000", "105632.520000", "105634.010000", "105635.500000", "105636.990000", "105638.480000", "105639.970000", "105641.460000", "105642.950000", "105644.440000", "105645.930000", "105647.420000", "105648.910000", "105650.400000", "105651.890000", "105653.380000", "105654.870000", "105656.360000", "105657.850000", "105659.340000", "105700.830000", "105702.320000", "105703.810000", "105705.300000", "105706.790000", "105708.280000", "105709.770000", "105711.260000", "105712.750000", "105714.240000", "105715.730000", "105717.220000", "105718.710000", "105720.200000", "105721.690000", "105723.180000", "105724.670000", "105726.160000", "105727.650000", "105729.140000", "105730.630000", "105732.120000", "105733.610000", "105735.100000", "105736.590000", "105738.080000", "105739.570000", "105741.060000", "105742.550000", "105744.040000", "105745.530000", "105747.020000", "105748.510000", "105750.000000", "105751.490000", "105752.980000", "105754.470000", "105755.960000", "105757.450000", "105758.940000", "105800.430000", "105801.920000", "105803.410000", "105804.900000", "105806.390000", "105807.880000", "105809.370000", "105810.860000", "105812.350000", "105813.840000", "105815.330000", "105816.820000", "105818.310000", "105819.800000", "105821.290000", "105822.780000", "105824.270000", "105825.760000", "105827.250000", "105828.740000", "105830.230000", "105831.720000", "105833.210000", "105834.700000", "105836.190000", "105837.680000", "105839.170000", "105840.660000", "105842.150000", "105843.640000", "105845.130000", "105846.620000", "105848.110000", "105849.600000", "105851.090000", "105852.580000", "105854.070000", "105855.560000", "105857.050000", "105858.540000", "105900.030000", "105901.520000", "105903.010000", "105904.500000", "105905.990000", "105907.480000", "105908.970000", "105910.460000", "105911.950000", "105913.440000", "105914.930000", "105916.420000", "105917.910000", "105919.400000", "105920.890000", "105922.380000", "105923.870000", "105925.360000", "105926.850000", "105928.340000", "105929.830000", "105931.320000", "105932.810000", "105934.300000", "105935.790000", "105937.280000", "105938.770000", "105940.260000", "105941.750000", "105943.240000", "105944.730000", "105946.220000", "105947.710000", "105949.200000", "105950.690000", "105952.180000", "105953.670000", "105955.160000", "105956.650000", "105958.140000", "105959.630000", "110001.120000", "110002.610000", "110004.100000", "110005.590000", "110007.080000", "110008.570000", "110010.060000", "110011.550000", "110013.040000", "110014.530000", "110016.020000", "110017.510000", "110019.000000", "110020.490000", "110021.980000", "110023.470000", "110024.960000", "110026.450000", "110027.940000", "110029.430000", "110030.920000", "110032.410000", "110033.900000", "110035.390000", "110036.880000", "110038.370000", "110039.860000", "110041.350000", "110042.840000", "110044.330000", "110045.820000", "110047.310000", "110048.800000", "110050.290000", "110051.780000", "110053.270000", "110054.760000", "110056.250000", "110057.740000", "110059.230000", "110100.720000", "110102.210000", "110103.700000", "110105.190000", "110106.680000", "110108.170000", "110109.660000", "110111.150000", "110112.640000", "110114.130000", "110115.620000", "110117.110000", "110118.600000", "110120.090000", "110121.580000", "110123.070000", "110124.560000", "110126.050000", "110127.540000", "110129.030000", "110130.520000", "110132.010000", "110133.500000", "110134.990000", "110136.480000", "110137.970000", "110139.460000", "110140.950000", "110142.440000", "110143.930000", "110145.420000", "110146.910000", "110148.400000", "110149.890000", "110151.380000", "110152.870000", "110154.360000", "110155.850000", "110157.340000", "110158.830000", "110200.320000", "110201.810000", "110203.300000", "110204.790000", "110206.280000", "110207.770000", "110209.260000", "110210.750000", "110212.240000", "110213.730000", "110215.220000", "110216.710000", "110218.200000", "110219.690000", "110221.180000", "110222.670000", "110224.160000", "110225.650000", "110227.140000", "110228.630000", "110230.120000", "110231.610000", "110233.100000", "110234.590000", "110236.080000", "110237.570000", "110239.060000", "110240.550000", "110242.040000", "110243.530000", "110245.020000", "110246.510000", "110248.000000", "110249.490000", "110250.980000", "110252.470000", "110253.960000", "110255.450000", "110256.940000", "110258.430000", "110259.920000", "110301.410000", "110302.900000", "110304.390000", "110305.880000", "110307.370000", "110308.860000", "110310.350000", "110311.840000", "110313.330000", "110314.820000", "110316.310000", "110317.800000", "110319.290000", "110320.780000", "110322.270000", "110323.760000", "110325.250000", "110326.740000", "110328.230000", "110329.720000", "110331.210000", "110332.700000", "110334.190000", "110335.680000", "110337.170000", "110338.660000", "110340.150000", "110341.640000", "110343.130000", "110344.620000", "110346.110000", "110347.600000", "110349.090000", "110350.580000", "110352.070000", "110353.560000", "110355.050000", "110356.540000", "110358.030000", "110359.520000", "110401.010000", "110402.500000", "110403.990000"],
      "ContentTime": ["105444.595000", "105444.599000", "105444.602000", "105444.606000", "105444.609000", "105444.612000", "105444.616000", "105444.619000", "105444.622000", "105444.625000", "105444.629000", "105444.632000", "105444.635000", "105444.639000", "105444.642000", "105444.645000", "105444.648000", "105444.652000", "105444.655000", "105444.658000", "105444.661000", "105504.563000", "105504.567000", "105504.570000", "105504.573000", "105504.577000", "105504.580000", "105504.583000", "105504.587000", "105504.590000", "105504.593000", "105504.597000", "105504.600000", "105504.612000", "105504.615000", "105504.618000", "105504.622000", "105504.625000", "105504.628000", "105504.631000", "105504.635000", "105524.563000", "105524.567000", "105524.570000", "105524.574000", "105524.577000", "105524.580000", "105524.583000", "105524.587000", "105524.590000", "105524.593000", "105524.604000", "105524.607000", "105524.610000", "105524.614000", "105524.617000", "105524.620000", "105524.623000", "105524.627000", "105524.630000", "105524.633000", "105544.563000", "105544.567000", "105544.570000", "105544.574000", "105544.578000", "105544.581000", "105544.584000", "105544.587000", "105544.591000", "105544.594000", "105544.597000", "105544.600000", "105544.604000", "105544.607000", "105544.610000", "105544.614000", "105544.617000", "105544.620000", "105544.624000", "105544.627000", "105604.563000", "105604.567000", "105604.570000", "105604.573000", "105604.577000", "105604.580000", "105604.583000", "105604.587000", "105604.590000", "105604.593000", "105604.597000", "105604.600000", "105604.603000", "105604.607000", "105604.610000", "105604.613000", "105604.616000", "105604.620000", "105604.623000", "105604.626000", "105604.630000", "105644.563000", "105644.567000", "105644.570000", "105644.574000", "105644.577000", "105644.580000", "105644.583000", "105644.587000", "105644.590000", "105644.593000", "105644.597000", "105644.600000", "105644.610000", "105644.613000", "105644.616000", "105644.620000", "105644.623000", "105644.626000", "105644.629000", "105644.633000", "105644.636000", "105644.639000", "105644.643000", "105644.646000", "105644.649000", "105644.653000", "105644.656000", "105644.660000", "105724.564000", "105724.567000", "105724.578000", "105724.581000", "105724.585000", "105724.588000", "105724.591000", "105724.595000", "105724.598000", "105724.601000", "105724.604000", "105724.608000", "105724.611000", "105724.614000", "105724.618000", "105724.621000", "105724.624000", "105724.628000", "105724.631000", "105724.634000", "105724.637000", "105724.641000", "105724.644000", "105724.647000", "105724.651000", "105724.654000", "105724.657000", "105804.563000", "105804.567000", "105804.570000", "105804.574000", "105804.577000", "105804.580000", "105804.584000", "105804.587000", "105804.590000", "105804.594000", "105804.597000", "105804.600000", "105804.603000", "105804.607000", "105804.610000", "105804.613000", "105804.617000", "105804.620000", "105804.624000", "105804.627000", "105804.630000", "105804.633000", "105804.637000", "105804.640000", "105804.643000", "105804.647000", "105804.650000", "105844.563000", "105844.567000", "105844.570000", "105844.574000", "105844.577000", "105844.580000", "105844.583000", "105844.587000", "105844.590000", "105844.593000", "105844.597000", "105844.600000", "105844.603000", "105844.606000", "105844.610000", "105844.613000", "105844.616000", "105844.620000", "105844.623000", "105844.626000", "105844.630000", "105844.633000", "105844.636000", "105844.640000", "105844.643000", "105844.646000", "105844.649000", "105924.562000", "105924.566000", "105924.569000", "105924.573000", "105924.576000", "105924.579000", "105924.583000", "105924.586000", "105924.589000", "105924.593000", "105924.596000", "105924.599000", "105924.603000", "105924.606000", "105924.609000", "105924.613000", "105924.616000", "105924.620000", "105924.623000", "105924.626000", "105924.629000", "105924.633000", "105924.636000", "105924.639000", "105924.651000", "105924.654000", "105924.657000", "110004.564000", "110004.569000", "110004.574000", "110004.578000", "110004.582000", "110004.585000", "110004.588000", "110004.592000", "110004.595000", "110004.633000", "110004.636000", "110004.639000", "110004.643000", "110004.646000", "110004.649000", "110004.652000", "110004.656000", "110004.659000", "110004.662000", "110004.666000", "110004.669000", "110004.672000", "110004.676000", "110004.686000", "110004.689000", "110004.692000", "110044.563000", "110044.567000", "110044.570000", "110044.574000", "110044.577000", "110044.580000", "110044.584000", "110044.587000", "110044.590000", "110044.594000", "110044.597000", "110044.600000", "110044.604000", "110044.607000", "110044.610000", "110044.613000", "110044.617000", "110044.620000", "110044.623000", "110044.627000", "110044.630000", "110044.633000", "110044.637000", "110044.640000", "110044.643000", "110044.646000", "110044.650000", "110124.563000", "110124.567000", "110124.570000", "110124.574000", "110124.577000", "110124.580000", "110124.584000", "110124.587000", "110124.590000", "110124.594000", "110124.597000", "110124.600000", "110124.604000", "110124.607000", "110124.610000", "110124.614000", "110124.617000", "110124.620000", "110124.624000", "110124.627000", "110124.630000", "110124.634000", "110124.637000", "110124.640000", "110124.643000", "110124.647000", "110124.650000", "110204.563000", "110204.567000", "110204.570000", "110204.574000", "110204.577000", "110204.580000", "110204.583000", "110204.587000", "110204.590000", "110204.615000", "110204.618000", "110204.622000", "110204.625000", "110204.628000", "110204.632000", "110204.635000", "110204.638000", "110204.641000", "110204.645000", "110204.648000", "110204.651000", "110204.655000", "110204.658000", "110204.661000", "110204.664000", "110204.668000", "110204.671000", "110244.563000", "110244.567000", "110244.570000", "110244.574000", "110244.577000", "110244.580000", "110244.583000", "110244.587000", "110244.590000", "110244.593000", "110244.597000", "110244.600000", "110244.603000", "110244.606000", "110244.610000", "110244.613000", "110244.616000", "110244.620000", "110244.623000", "110244.626000", "110244.629000", "110244.633000", "110244.636000", "110244.639000", "110244.642000", "110244.646000", "110244.649000", "110324.563000", "110324.567000", "110324.570000", "110324.574000", "110324.577000", "110324.580000", "110324.583000", "110324.587000", "110324.590000", "110324.593000", "110324.597000", "110324.601000", "110324.605000", "110324.608000", "110324.611000", "110324.614000", "110324.618000", "110324.621000", "110324.624000", "110324.636000", "110324.639000", "110324.642000", "110324.645000", "110324.649000", "110324.652000", "110324.656000", "110324.659000", "110404.562000", "110404.566000", "110404.569000", "110404.572000", "110404.576000", "110404.579000", "110404.582000", "110404.585000", "110404.589000", "110404.592000", "110404.595000", "110404.599000", "110404.602000", "110404.605000", "110404.608000", "110404.612000", "110404.615000", "110404.618000", "110404.621000", "110404.625000", "110404.628000", "110404.631000", "110404.635000", "110404.651000", "110404.654000", "110404.657000", "110404.660000", "110406.450000"],
      "InstanceCreationTime": ["105444.595000", "105444.599000", "105444.602000", "105444.606000", "105444.609000", "105444.612000", "105444.616000", "105444.619000", "105444.622000", "105444.625000", "105444.629000", "105444.632000", "105444.635000", "105444.639000", "105444.642000", "105444.645000", "105444.648000", "105444.652000", "105444.655000", "105444.658000", "105444.661000", "105504.563000", "105504.567000", "105504.570000", "105504.573000", "105504.577000", "105504.580000", "105504.583000", "105504.587000", "105504.590000", "105504.593000", "105504.597000", "105504.600000", "105504.612000", "105504.615000", "105504.618000", "105504.622000", "105504.625000", "105504.628000", "105504.631000", "105504.635000", "105524.563000", "105524.567000", "105524.570000", "105524.574000", "105524.577000", "105524.580000", "105524.583000", "105524.587000", "105524.590000", "105524.593000", "105524.604000", "105524.607000", "105524.610000", "105524.614000", "105524.617000", "105524.620000", "105524.623000", "105524.627000", "105524.630000", "105524.633000", "105544.563000", "105544.567000", "105544.570000", "105544.574000", "105544.578000", "105544.581000", "105544.584000", "105544.587000", "105544.591000", "105544.594000", "105544.597000", "105544.600000", "105544.604000", "105544.607000", "105544.610000", "105544.614000", "105544.617000", "105544.620000", "105544.624000", "105544.627000", "105604.563000", "105604.567000", "105604.570000", "105604.573000", "105604.577000", "105604.580000", "105604.583000", "105604.587000", "105604.590000", "105604.593000", "105604.597000", "105604.600000", "105604.603000", "105604.607000", "105604.610000", "105604.613000", "105604.616000", "105604.620000", "105604.623000", "105604.626000", "105604.630000", "105644.563000", "105644.567000", "105644.570000", "105644.574000", "105644.577000", "105644.580000", "105644.583000", "105644.587000", "105644.590000", "105644.593000", "105644.597000", "105644.600000", "105644.610000", "105644.613000", "105644.616000", "105644.620000", "105644.623000", "105644.626000", "105644.629000", "105644.633000", "105644.636000", "105644.639000", "105644.643000", "105644.646000", "105644.649000", "105644.653000", "105644.656000", "105644.660000", "105724.564000", "105724.567000", "105724.578000", "105724.581000", "105724.585000", "105724.588000", "105724.591000", "105724.595000", "105724.598000", "105724.601000", "105724.604000", "105724.608000", "105724.611000", "105724.614000", "105724.618000", "105724.621000", "105724.624000", "105724.628000", "105724.631000", "105724.634000", "105724.637000", "105724.641000", "105724.644000", "105724.647000", "105724.651000", "105724.654000", "105724.657000", "105804.563000", "105804.567000", "105804.570000", "105804.574000", "105804.577000", "105804.580000", "105804.584000", "105804.587000", "105804.590000", "105804.594000", "105804.597000", "105804.600000", "105804.603000", "105804.607000", "105804.610000", "105804.613000", "105804.617000", "105804.620000", "105804.624000", "105804.627000", "105804.630000", "105804.633000", "105804.637000", "105804.640000", "105804.643000", "105804.647000", "105804.650000", "105844.563000", "105844.567000", "105844.570000", "105844.574000", "105844.577000", "105844.580000", "105844.583000", "105844.587000", "105844.590000", "105844.593000", "105844.597000", "105844.600000", "105844.603000", "105844.606000", "105844.610000", "105844.613000", "105844.616000", "105844.620000", "105844.623000", "105844.626000", "105844.630000", "105844.633000", "105844.636000", "105844.640000", "105844.643000", "105844.646000", "105844.649000", "105924.562000", "105924.566000", "105924.569000", "105924.573000", "105924.576000", "105924.579000", "105924.583000", "105924.586000", "105924.589000", "105924.593000", "105924.596000", "105924.599000", "105924.603000", "105924.606000", "105924.609000", "105924.613000", "105924.616000", "105924.620000", "105924.623000", "105924.626000", "105924.629000", "105924.633000", "105924.636000", "105924.639000", "105924.651000", "105924.654000", "105924.657000", "110004.564000", "110004.569000", "110004.574000", "110004.578000", "110004.582000", "110004.585000", "110004.588000", "110004.592000", "110004.595000", "110004.633000", "110004.636000", "110004.639000", "110004.643000", "110004.646000", "110004.649000", "110004.652000", "110004.656000", "110004.659000", "110004.662000", "110004.666000", "110004.669000", "110004.672000", "110004.676000", "110004.686000", "110004.689000", "110004.692000", "110044.563000", "110044.567000", "110044.570000", "110044.574000", "110044.577000", "110044.580000", "110044.584000", "110044.587000", "110044.590000", "110044.594000", "110044.597000", "110044.600000", "110044.604000", "110044.607000", "110044.610000", "110044.613000", "110044.617000", "110044.620000", "110044.623000", "110044.627000", "110044.630000", "110044.633000", "110044.637000", "110044.640000", "110044.643000", "110044.646000", "110044.650000", "110124.563000", "110124.567000", "110124.570000", "110124.574000", "110124.577000", "110124.580000", "110124.584000", "110124.587000", "110124.590000", "110124.594000", "110124.597000", "110124.600000", "110124.604000", "110124.607000", "110124.610000", "110124.614000", "110124.617000", "110124.620000", "110124.624000", "110124.627000", "110124.630000", "110124.634000", "110124.637000", "110124.640000", "110124.643000", "110124.647000", "110124.650000", "110204.563000", "110204.567000", "110204.570000", "110204.574000", "110204.577000", "110204.580000", "110204.583000", "110204.587000", "110204.590000", "110204.615000", "110204.618000", "110204.622000", "110204.625000", "110204.628000", "110204.632000", "110204.635000", "110204.638000", "110204.641000", "110204.645000", "110204.648000", "110204.651000", "110204.655000", "110204.658000", "110204.661000", "110204.664000", "110204.668000", "110204.671000", "110244.563000", "110244.567000", "110244.570000", "110244.574000", "110244.577000", "110244.580000", "110244.583000", "110244.587000", "110244.590000", "110244.593000", "110244.597000", "110244.600000", "110244.603000", "110244.606000", "110244.610000", "110244.613000", "110244.616000", "110244.620000", "110244.623000", "110244.626000", "110244.629000", "110244.633000", "110244.636000", "110244.639000", "110244.642000", "110244.646000", "110244.649000", "110324.563000", "110324.567000", "110324.570000", "110324.574000", "110324.577000", "110324.580000", "110324.583000", "110324.587000", "110324.590000", "110324.593000", "110324.597000", "110324.601000", "110324.605000", "110324.608000", "110324.611000", "110324.614000", "110324.618000", "110324.621000", "110324.624000", "110324.636000", "110324.639000", "110324.642000", "110324.645000", "110324.649000", "110324.652000", "110324.656000", "110324.659000", "110404.562000", "110404.566000", "110404.569000", "110404.572000", "110404.576000", "110404.579000", "110404.582000", "110404.585000", "110404.589000", "110404.592000", "110404.595000", "110404.599000", "110404.602000", "110404.605000", "110404.608000", "110404.612000", "110404.615000", "110404.618000", "110404.621000", "110404.625000", "110404.628000", "110404.631000", "110404.635000", "110404.651000", "110404.654000", "110404.657000", "110404.660000", "110406.450000"],
