{
  "AcquisitionMatrixPE": 104,
  "AcquisitionNumber": 1,
  "AcquisitionTime": "10:53:29.250000",
  "BandwidthPerPixelPhaseEncode": 17.17,
  "BaseResolution": 104,
  "BodyPartExamined": "BRAIN",
  "CoilCombinationMethod": "Sum of Squares",
  "ConsistencyInfo": "N4_VE11C_LATEST_20160120",
  "ConversionSoftware": "dcm2niix",
  "ConversionSoftwareVersion": "v1.0.20211006",
  "DerivedVendorReportedEchoSpacing": 0.000560011,
  "DeviceSerialNumber": "167006",
  "DwellTime": 2.1e-06,
  "EchoTime": 0.037,
  "EchoTime1": 0.037,
  "EchoTime2": 0.001,
  "EchoTrainLength": 104,
  "EffectiveEchoSpacing": 0.000560011,
  "FlipAngle": 52,
  "HeudiconvVersion": "0.10.0",
  "ImageComments": "Unaliased MB4/PE3/LB",
  "ImageOrientationPatientDICOM": [0.999517, 0.0102164, 0.0293564, 0.0071525, 0.843504, -0.537075],
  "ImageOrientationText": "Tra>Cor(-32.5)>Sag(1.7)",
  "ImageType": [
    "ORIGINAL",
    "PRIMARY",
    "P",
    "MB",
    "ND",
    "MOSAIC",
    "PHASE"
],
  "ImagingFrequency": 123.259,
  "InPlanePhaseEncodingDirectionDICOM": "COL",
  "InstitutionAddress": "Chemin Queen-Mary 4565,Montreal,District,CA,H3W 1W5",
  "InstitutionName": "IUGM",
  "InstitutionalDepartmentName": "Department",
  "MRAcquisitionType": "2D",
  "MagneticFieldStrength": 3,
  "Manufacturer": "Siemens",
  "ManufacturersModelName": "Prisma_fit",
  "MatrixCoilMode": "SENSE",
  "Modality": "MR",
  "MultibandAccelerationFactor": 4,
  "PartialFourier": 1,
  "PatientPosition": "HFS",
  "PercentPhaseFOV": 100,
  "PercentSampling": 100,
  "PhaseEncodingDirection": "j",
  "PhaseEncodingSteps": 104,
  "PhaseResolution": 1,
  "PixelBandwidth": 2290,
  "ProcedureStepDescription": "games^mario",
  "ProtocolName": "func_task-mario_run-01",
  "PulseSequenceDetails": "%CustomerSeq%\\cmrr_mbep2d_bold",
  "ReceiveCoilActiveElements": "HC1-7;NC1,2",
  "ReceiveCoilName": "HeadNeck_64",
  "ReconMatrixPE": 104,
  "RepetitionTime": 1.49,
  "SAR": 0.0484013,
  "ScanOptions": "FS",
  "ScanningSequence": "EP",
  "SequenceName": "epfid2d1_104",
  "SequenceVariant": "SK\\SS",
  "SeriesDescription": "func_task-mario_run-01",
  "SeriesNumber": 14,
  "ShimSetting": [623, -7171, -8878, 208, 29, -161, 41, 8],
  "SliceThickness": 2,
  "SliceTiming": [0, 0.7825, 0.0975, 0.88, 0.195, 0.98, 0.2925, 1.0775, 0.3925, 1.175, 0.49, 1.2725, 0.5875, 1.37, 0.685, 0, 0.7825, 0.0975, 0.88, 0.195, 0.98, 0.2925, 1.0775, 0.3925, 1.175, 0.49, 1.2725, 0.5875, 1.37, 0.685, 0, 0.7825, 0.0975, 0.88, 0.195, 0.98, 0.2925, 1.0775, 0.3925, 1.175, 0.49, 1.2725, 0.5875, 1.37, 0.685, 0, 0.7825, 0.0975, 0.88, 0.195, 0.98, 0.2925, 1.0775, 0.3925, 1.175, 0.49, 1.2725, 0.5875, 1.37, 0.685],
  "SoftwareVersions": "syngo MR E11",
  "SpacingBetweenSlices": 2,
  "StationName": "MRC35049",
  "TaskName": "mario",
  "TotalReadoutTime": 0.0576811,
  "TxRefAmp": 276.518,
  "WipMemBlock": "1420feb3-9098-4309-8efc-0cd55a66d8da||Sequence: R016 ve11c/master r/e634e98; Dec 19 2017 11:00:25 by eja",
  "dcmmeta_affine": [
    [-1.9990335702896118, 0.014304996468126774, 0.06049840897321701, 104.87452697753906],
    [-0.02043275721371174, 1.6870079040527344, -1.0740514993667603, -46.98534393310547],
    [0.058712802827358246, 1.0741506814956665, 1.6860466003417969, -102.60006713867188],
    [0.0, 0.0, 0.0, 1.0]
],
  "dcmmeta_reorient_transform": [
    [0.0, -1.0, 0.0, 103.0],
    [1.0, 0.0, 0.0, 0.0],
    [0.0, 0.0, 1.0, 0.0],
    [0.0, 0.0, 0.0, 1.0]
],
  "dcmmeta_shape": [104, 104, 60, 427],
  "dcmmeta_slice_dim": 2,
  "dcmmeta_version": 0.6,
  "global": {
    "const": {
      "AcquisitionMatrix": [104, 0, 0, 104],
      "AngioFlag": "N",
      "BitsAllocated": 16,
      "BitsStored": 16,
      "BodyPartExamined": "BRAIN",
      "Columns": 832,
      "EchoNumbers": 1,
      "EchoTime": 37.0,
      "EchoTrainLength": 104,
      "FlipAngle": 52.0,
      "HighBit": 15,
      "ImageOrientationPatient": [0.99951679692768, 0.01021637890409, 0.02935640069093, 0.00715249812108, 0.84350396968321, -0.5370753158536],
      "ImagePositionPatient": [-839.20318468785, -748.28488919822, 377.65681759116],
      "ImageType": [
        "ORIGINAL",
        "PRIMARY",
        "P",
        "MB",
        "ND",
        "MOSAIC"
],
      "ImagedNucleus": "1H",
      "ImagingFrequency": 123.25885,
      "InPlanePhaseEncodingDirection": "COL",
      "LargestImagePixelValue": 4095,
      "MRAcquisitionType": "2D",
      "MagneticFieldStrength": 3.0,
      "Manufacturer": "SIEMENS",
      "ManufacturerModelName": "Prisma_fit",
      "Modality": "MR",
      "NumberOfAverages": 1.0,
      "NumberOfPhaseEncodingSteps": 104,
      "PercentPhaseFieldOfView": 100.0,
      "PercentSampling": 100.0,
      "PerformedProcedureStepStartTime": "102958.210000",
      "PhotometricInterpretation": "MONOCHROME2",
      "PixelBandwidth": 2290.0,
      "PixelRepresentation": 0,
      "PixelSpacing": [2.0, 2.0],
      "ProtocolName": "func_task-mario_run-01",
      "RepetitionTime": 1490.0,
      "RescaleIntercept": -4096.0,
      "RescaleSlope": 2.0,
      "RescaleType": "US",
      "Rows": 832,
      "SAR": 0.04840133968183,
      "SamplesPerPixel": 1,
      "ScanOptions": "FS",
      "ScanningSequence": "EP",
      "SequenceName": "epfid2d1_104",
      "SequenceVariant": [
        "SK",
        "SS"
],
      "SeriesDescription": "func_task-mario_run-01",
      "SeriesNumber": 14,
      "SeriesTime": "105444.704000",
      "SliceLocation": -58.089538342082,
      "SliceThickness": 2.0,
      "SmallestImagePixelValue": 0,
      "SoftwareVersions": "syngo MR E11",
      "SpacingBetweenSlices": 1.9999999642975,
      "SpecificCharacterSet": "ISO_IR 100",
      "StudyID": "1",
      "StudyTime": "102958.133000",
      "TransmitCoilName": "Body",
      "VariableFlipAngleFlag": "N",
      "WindowCenterWidthExplanation": "Algo1",
      "dBdt": 0.0},
    "slices": {}
  },
  "time": {
    "samples": {
      "AcquisitionNumber": [1, 2, 3, 4, 5, 6, 7, 8, 9, 10, 11, 12, 13, 14, 15, 16, 17, 18, 19, 20, 21, 22, 23, 24, 25, 26, 27, 28, 29, 30, 31, 32, 33, 34, 35, 36, 37, 38, 39, 40, 41, 42, 43, 44, 45, 46, 47, 48, 49, 50, 51, 52, 53, 54, 55, 56, 57, 58, 59, 60, 61, 62, 63, 64, 65, 66, 67, 68, 69, 70, 71, 72, 73, 74, 75, 76, 77, 78, 79, 80, 81, 82, 83, 84, 85, 86, 87, 88, 89, 90, 91, 92, 93, 94, 95, 96, 97, 98, 99, 100, 101, 102, 103, 104, 105, 106, 107, 108, 109, 110, 111, 112, 113, 114, 115, 116, 117, 118, 119, 120, 121, 122, 123, 124, 125, 126, 127, 128, 129, 130, 131, 132, 133, 134, 135, 136, 137, 138, 139, 140, 141, 142, 143, 144, 145, 146, 147, 148, 149, 150, 151, 152, 153, 154, 155, 156, 157, 158, 159, 160, 161, 162, 163, 164, 165, 166, 167, 168, 169, 170, 171, 172, 173, 174, 175, 176, 177, 178, 179, 180, 181, 182, 183, 184, 185, 186, 187, 188, 189, 190, 191, 192, 193, 194, 195, 196, 197, 198, 199, 200, 201, 202, 203, 204, 205, 206, 207, 208, 209, 210, 211, 212, 213, 214, 215, 216, 217, 218, 219, 220, 221, 222, 223, 224, 225, 226, 227, 228, 229, 230, 231, 232, 233, 234, 235, 236, 237, 238, 239, 240, 241, 242, 243, 244, 245, 246, 247, 248, 249, 250, 251, 252, 253, 254, 255, 256, 257, 258, 259, 260, 261, 262, 263, 264, 265, 266, 267, 268, 269, 270, 271, 272, 273, 274, 275, 276, 277, 278, 279, 280, 281, 282, 283, 284, 285, 286, 287, 288, 289, 290, 291, 292, 293, 294, 295, 296, 297, 298, 299, 300, 301, 302, 303, 304, 305, 306, 307, 308, 309, 310, 311, 312, 313, 314, 315, 316, 317, 318, 319, 320, 321, 322, 323, 324, 325, 326, 327, 328, 329, 330, 331, 332, 333, 334, 335, 336, 337, 338, 339, 340, 341, 342, 343, 344, 345, 346, 347, 348, 349, 350, 351, 352, 353, 354, 355, 356, 357, 358, 359, 360, 361, 362, 363, 364, 365, 366, 367, 368, 369, 370, 371, 372, 373, 374, 375, 376, 377, 378, 379, 380, 381, 382, 383, 384, 385, 386, 387, 388, 389, 390, 391, 392, 393, 394, 395, 396, 397, 398, 399, 400, 401, 402, 403, 404, 405, 406, 407, 408, 409, 410, 411, 412, 413, 414, 415, 416, 417, 418, 419, 420, 421, 422, 423, 424, 425, 426, 427],
      "AcquisitionTime": ["105329.250000", "105330.740000", "105332.230000", "105333.720000", "105335.210000", "105336.700000", "105338.190000", "105339.680000", "105341.170000", "105342.660000", "105344.150000", "105345.640000", "105347.130000", "105348.620000", "105350.110000", "105351.600000", "105353.090000", "105354.580000", "105356.070000", "105357.560000", "105359.050000", "105400.540000", "105402.030000", "105403.520000", "105405.010000", "105406.500000", "105407.990000", "105409.480000", "105410.970000", "105412.460000", "105413.950000", "105415.440000", "105416.930000", "105418.420000", "105419.910000", "105421.400000", "105422.890000", "105424.380000", "105425.870000", "105427.360000", "105428.850000", "105430.340000", "105431.830000", "105433.320000", "105434.810000", "105436.300000", "105437.790000", "105439.280000", "105440.770000", "105442.260000", "105443.750000", "105445.240000", "105446.730000", "105448.220000", "105449.710000", "105451.200000", "105452.690000", "105454.180000", "105455.670000", "105457.160000", "105458.650000", "105500.140000", "105501.630000", "105503.120000", "105504.610000", "105506.100000", "105507.590000", "105509.080000", "105510.570000", "105512.060000", "105513.550000", "105515.040000", "105516.530000", "105518.020000", "105519.510000", "105521.000000", "105522.490000", "105523.980000", "105525.470000", "105526.960000", "105528.450000", "105529.940000", "105531.430000", "105532.920000", "105534.410000", "105535.900000", "105537.390000", "105538.880000", "105540.370000", "105541.860000", "105543.350000", "105544.840000", "105546.330000", "105547.820000", "105549.310000", "105550.800000", "105552.290000", "105553.780000", "105555.270000", "105556.760000", "105558.250000", "105559.740000", "105601.230000", "105602.720000", "105604.210000", "105605.700000", "105607.190000", "105608.680000", "105610.170000", "105611.660000", "105613.150000", "105614.640000", "105616.130000", "105617.620000", "105619.110000", "105620.600000", "105622.090000", "105623.580000", "105625.070000", "105626.560000", "105628.050000", "105629.540000", "105631.030000", "105632.520000", "105634.010000", "105635.500000", "105636.990000", "105638.480000", "105639.970000", "105641.460000", "105642.950000", "105644.440000", "105645.930000", "105647.420000", "105648.910000", "105650.400000", "105651.890000", "105653.380000", "105654.870000", "105656.360000", "105657.850000", "105659.340000", "105700.830000", "105702.320000", "105703.810000", "105705.300000", "105706.790000", "105708.280000", "105709.770000", "105711.260000", "105712.750000", "105714.240000", "105715.730000", "105717.220000", "105718.710000", "105720.200000", "105721.690000", "105723.180000", "105724.670000", "105726.160000", "105727.650000", "105729.140000", "105730.630000", "105732.120000", "105733.610000", "105735.100000", "105736.590000", "105738.080000", "105739.570000", "105741.060000", "105742.550000", "105744.040000", "105745.530000", "105747.020000", "105748.510000", "105750.000000", "105751.490000", "105752.980000", "105754.470000", "105755.960000", "105757.450000", "105758.940000", "105800.430000", "105801.920000", "105803.410000", "105804.900000", "105806.390000", "105807.880000", "105809.370000", "105810.860000", "105812.350000", "105813.840000", "105815.330000", "105816.820000", "105818.310000", "105819.800000", "105821.290000", "105822.780000", "105824.270000", "105825.760000", "105827.250000", "105828.740000", "105830.230000", "105831.720000", "105833.210000", "105834.700000", "105836.190000", "105837.680000", "105839.170000", "105840.660000", "105842.150000", "105843.640000", "105845.130000", "105846.620000", "105848.110000", "105849.600000", "105851.090000", "105852.580000", "105854.070000", "105855.560000", "105857.050000", "105858.540000", "105900.030000", "105901.520000", "105903.010000", "105904.500000", "105905.990000", "105907.480000", "105908.970000", "105910.460000", "105911.950000", "105913.440000", "105914.930000", "105916.420000", "105917.910000", "105919.400000", "105920.890000", "105922.380000", "105923.870000", "105925.360000", "105926.850000", "105928.340000", "105929.830000", "105931.320000", "105932.810000", "105934.300000", "105935.790000", "105937.280000", "105938.770000", "105940.260000", "105941.750000", "105943.240000", "105944.730000", "105946.220000", "105947.710000", "105949.200000", "105950.690000", "105952.180000", "105953.670000", "105955.160000", "105956.650000", "105958.140000", "105959.630000", "110001.120000", "110002.610000", "110004.100000", "110005.590000", "110007.080000", "110008.570000", "110010.060000", "110011.550000", "110013.040000", "110014.530000", "110016.020000", "110017.510000", "110019.000000", "110020.490000", "110021.980000", "110023.470000", "110024.960000", "110026.450000", "110027.940000", "110029.430000", "110030.920000", "110032.410000", "110033.900000", "110035.390000", "110036.880000", "110038.370000", "110039.860000", "110041.350000", "110042.840000", "110044.330000", "110045.820000", "110047.310000", "110048.800000", "110050.290000", "110051.780000", "110053.270000", "110054.760000", "110056.250000", "110057.740000", "110059.230000", "110100.720000", "110102.210000", "110103.700000", "110105.190000", "110106.680000", "110108.170000", "110109.660000", "110111.150000", "110112.640000", "110114.130000", "110115.620000", "110117.110000", "110118.600000", "110120.090000", "110121.580000", "110123.070000", "110124.560000", "110126.050000", "110127.540000", "110129.030000", "110130.520000", "110132.010000", "110133.500000", "110134.990000", "110136.480000", "110137.970000", "110139.460000", "110140.950000", "110142.440000", "110143.930000", "110145.420000", "110146.910000", "110148.400000", "110149.890000", "110151.380000", "110152.870000", "110154.360000", "110155.850000", "110157.340000", "110158.830000", "110200.320000", "110201.810000", "110203.300000", "110204.790000", "110206.280000", "110207.770000", "110209.260000", "110210.750000", "110212.240000", "110213.730000", "110215.220000", "110216.710000", "110218.200000", "110219.690000", "110221.180000", "110222.670000", "110224.160000", "110225.650000", "110227.140000", "110228.630000", "110230.120000", "110231.610000", "110233.100000", "110234.590000", "110236.080000", "110237.570000", "110239.060000", "110240.550000", "110242.040000", "110243.530000", "110245.020000", "110246.510000", "110248.000000", "110249.490000", "110250.980000", "110252.470000", "110253.960000", "110255.450000", "110256.940000", "110258.430000", "110259.920000", "110301.410000", "110302.900000", "110304.390000", "110305.880000", "110307.370000", "110308.860000", "110310.350000", "110311.840000", "110313.330000", "110314.820000", "110316.310000", "110317.800000", "110319.290000", "110320.780000", "110322.270000", "110323.760000", "110325.250000", "110326.740000", "110328.230000", "110329.720000", "110331.210000", "110332.700000", "110334.190000", "110335.680000", "110337.170000", "110338.660000", "110340.150000", "110341.640000", "110343.130000", "110344.620000", "110346.110000", "110347.600000", "110349.090000", "110350.580000", "110352.070000", "110353.560000", "110355.050000", "110356.540000", "110358.030000", "110359.520000", "110401.010000", "110402.500000", "110403.990000"],
      "ContentTime": ["105444.706000", "105444.709000", "105444.712000", "105444.714000", "105444.717000", "105444.719000", "105444.722000", "105444.725000", "105444.727000", "105444.729000", "105444.732000", "105444.734000", "105444.737000", "105444.739000", "105444.742000", "105444.744000", "105444.747000", "105444.749000", "105444.752000", "105444.754000", "105444.757000", "105504.669000", "105504.672000", "105504.675000", "105504.677000", "105504.680000", "105504.682000", "105504.685000", "105504.687000", "105504.690000", "105504.692000", "105504.695000", "105504.697000", "105504.700000", "105504.702000", "105504.705000", "105504.707000", "105504.710000", "105504.712000", "105504.715000", "105504.717000", "105524.681000", "105524.684000", "105524.686000", "105524.689000", "105524.691000", "105524.694000", "105524.696000", "105524.699000", "105524.701000", "105524.704000", "105524.706000", "105524.709000", "105524.711000", "105524.714000", "105524.716000", "105524.719000", "105524.721000", "105524.724000", "105524.726000", "105524.729000", "105544.667000", "105544.670000", "105544.672000", "105544.675000", "105544.677000", "105544.689000", "105544.692000", "105544.694000", "105544.697000", "105544.699000", "105544.702000", "105544.704000", "105544.707000", "105544.709000", "105544.712000", "105544.714000", "105544.717000", "105544.719000", "105544.722000", "105544.724000", "105604.672000", "105604.675000", "105604.677000", "105604.680000", "105604.682000", "105604.685000", "105604.687000", "105604.690000", "105604.692000", "105604.695000", "105604.697000", "105604.700000", "105604.702000", "105604.705000", "105604.707000", "105604.710000", "105604.712000", "105604.715000", "105604.717000", "105604.720000", "105604.722000", "105644.714000", "105644.717000", "105644.719000", "105644.722000", "105644.724000", "105644.727000", "105644.729000", "105644.732000", "105644.734000", "105644.737000", "105644.739000", "105644.742000", "105644.744000", "105644.757000", "105644.759000", "105644.762000", "105644.764000", "105644.769000", "105644.796000", "105644.799000", "105644.801000", "105644.804000", "105644.806000", "105644.809000", "105644.811000", "105644.814000", "105644.816000", "105644.819000", "105724.705000", "105724.708000", "105724.710000", "105724.713000", "105724.716000", "105724.718000", "105724.720000", "105724.723000", "105724.726000", "105724.728000", "105724.730000", "105724.733000", "105724.736000", "105724.738000", "105724.740000", "105724.743000", "105724.745000", "105724.748000", "105724.750000", "105724.753000", "105724.755000", "105724.758000", "105724.760000", "105724.763000", "105724.765000", "105724.768000", "105724.771000", "105804.707000", "105804.710000", "105804.712000", "105804.715000", "105804.717000", "105804.720000", "105804.722000", "105804.725000", "105804.727000", "105804.730000", "105804.732000", "105804.735000", "105804.737000", "105804.740000", "105804.743000", "105804.745000", "105804.748000", "105804.750000", "105804.753000", "105804.755000", "105804.758000", "105804.760000", "105804.763000", "105804.765000", "105804.768000", "105804.770000", "105804.773000", "105845.137000", "105845.139000", "105845.142000", "105845.144000", "105845.147000", "105845.150000", "105845.152000", "105845.155000", "105845.157000", "105845.160000", "105845.169000", "105845.171000", "105845.174000", "105845.176000", "105845.179000", "105845.181000", "105845.184000", "105845.186000", "105845.189000", "105845.191000", "105845.194000", "105845.196000", "105845.199000", "105845.201000", "105845.204000", "105845.206000", "105845.209000", "105924.698000", "105924.701000", "105924.703000", "105924.706000", "105924.708000", "105924.711000", "105924.713000", "105924.716000", "105924.718000", "105924.721000", "105924.723000", "105924.726000", "105924.728000", "105924.731000", "105924.733000", "105924.736000", "105924.738000", "105924.741000", "105924.743000", "105924.746000", "105924.748000", "105924.751000", "105924.754000", "105924.756000", "105924.758000", "105924.761000", "105924.764000", "110004.741000", "110004.743000", "110004.746000", "110004.748000", "110004.751000", "110004.759000", "110004.762000", "110004.764000", "110004.767000", "110004.769000", "110004.772000", "110004.774000", "110004.777000", "110004.779000", "110004.782000", "110004.784000", "110004.787000", "110004.790000", "110004.792000", "110004.794000", "110004.797000", "110004.800000", "110004.802000", "110004.805000", "110004.807000", "110004.810000", "110044.715000", "110044.717000", "110044.720000", "110044.722000", "110044.725000", "110044.727000", "110044.730000", "110044.732000", "110044.735000", "110044.737000", "110044.740000", "110044.742000", "110044.745000", "110044.748000", "110044.750000", "110044.753000", "110044.755000", "110044.758000", "110044.760000", "110044.763000", "110044.765000", "110044.768000", "110044.836000", "110044.839000", "110044.842000", "110044.844000", "110044.846000", "110124.711000", "110124.714000", "110124.716000", "110124.719000", "110124.721000", "110124.724000", "110124.726000", "110124.729000", "110124.731000", "110124.734000", "110124.736000", "110124.739000", "110124.741000", "110124.744000", "110124.746000", "110124.749000", "110124.751000", "110124.753000", "110124.756000", "110124.758000", "110124.761000", "110124.763000", "110124.766000", "110124.829000", "110124.832000", "110124.834000", "110124.837000", "110204.714000", "110204.717000", "110204.719000", "110204.722000", "110204.724000", "110204.727000", "110204.729000", "110204.732000", "110204.734000", "110204.737000", "110204.739000", "110204.742000", "110204.744000", "110204.747000", "110204.749000", "110204.752000", "110204.754000", "110204.757000", "110204.759000", "110204.762000", "110204.764000", "110204.767000", "110204.769000", "110204.772000", "110204.774000", "110204.777000", "110204.779000", "110244.699000", "110244.702000", "110244.704000", "110244.707000", "110244.709000", "110244.712000", "110244.714000", "110244.717000", "110244.719000", "110244.722000", "110244.724000", "110244.727000", "110244.729000", "110244.732000", "110244.734000", "110244.737000", "110244.739000", "110244.742000", "110244.744000", "110244.747000", "110244.749000", "110244.752000", "110244.754000", "110244.756000", "110244.759000", "110244.761000", "110244.764000", "110324.713000", "110324.716000", "110324.718000", "110324.721000", "110324.723000", "110324.726000", "110324.728000", "110324.731000", "110324.733000", "110324.736000", "110324.738000", "110324.741000", "110324.743000", "110324.745000", "110324.748000", "110324.750000", "110324.753000", "110324.755000", "110324.758000", "110324.760000", "110324.763000", "110324.765000", "110324.768000", "110324.854000", "110324.857000", "110324.859000", "110324.862000", "110404.704000", "110404.707000", "110404.709000", "110404.712000", "110404.714000", "110404.717000", "110404.719000", "110404.722000", "110404.724000", "110404.727000", "110404.729000", "110404.732000", "110404.734000", "110404.736000", "110404.739000", "110404.741000", "110404.744000", "110404.746000", "110404.749000", "110404.751000", "110404.754000", "110404.756000", "110404.759000", "110404.761000", "110404.764000", "110404.766000", "110404.818000", "110406.482000"],
      "InstanceCreationTime": ["105444.706000", "105444.709000", "105444.712000", "105444.714000", "105444.717000", "105444.719000", "105444.722000", "105444.725000", "105444.727000", "105444.729000", "105444.732000", "105444.734000", "105444.737000", "105444.739000", "105444.742000", "105444.744000", "105444.747000", "105444.749000", "105444.752000", "105444.754000", "105444.757000", "105504.669000", "105504.672000", "105504.675000", "105504.677000", "105504.680000", "105504.682000", "105504.685000", "105504.687000", "105504.690000", "105504.692000", "105504.695000", "105504.697000", "105504.700000", "105504.702000", "105504.705000", "105504.707000", "105504.710000", "105504.712000", "105504.715000", "105504.717000", "105524.681000", "105524.684000", "105524.686000", "105524.689000", "105524.691000", "105524.694000", "105524.696000", "105524.699000", "105524.701000", "105524.704000", "105524.706000", "105524.709000", "105524.711000", "105524.714000", "105524.716000", "105524.719000", "105524.721000", "105524.724000", "105524.726000", "105524.729000", "105544.667000", "105544.670000", "105544.672000", "105544.675000", "105544.677000", "105544.689000", "105544.692000", "105544.694000", "105544.697000", "105544.699000", "105544.702000", "105544.704000", "105544.707000", "105544.709000", "105544.712000", "105544.714000", "105544.717000", "105544.719000", "105544.722000", "105544.724000", "105604.672000", "105604.675000", "105604.677000", "105604.680000", "105604.682000", "105604.685000", "105604.687000", "105604.690000", "105604.692000", "105604.695000", "105604.697000", "105604.700000", "105604.702000", "105604.705000", "105604.707000", "105604.710000", "105604.712000", "105604.715000", "105604.717000", "105604.720000", "105604.722000", "105644.714000", "105644.717000", "105644.719000", "105644.722000", "105644.724000", "105644.727000", "105644.729000", "105644.732000", "105644.734000", "105644.737000", "105644.739000", "105644.742000", "105644.744000", "105644.757000", "105644.759000", "105644.762000", "105644.764000", "105644.769000", "105644.796000", "105644.799000", "105644.801000", "105644.804000", "105644.806000", "105644.809000", "105644.811000", "105644.814000", "105644.816000", "105644.819000", "105724.705000", "105724.708000", "105724.710000", "105724.713000", "105724.716000", "105724.718000", "105724.720000", "105724.723000", "105724.726000", "105724.728000", "105724.730000", "105724.733000", "105724.736000", "105724.738000", "105724.740000", "105724.743000", "105724.745000", "105724.748000", "105724.750000", "105724.753000", "105724.755000", "105724.758000", "105724.760000", "105724.763000", "105724.765000", "105724.768000", "105724.771000", "105804.707000", "105804.710000", "105804.712000", "105804.715000", "105804.717000", "105804.720000", "105804.722000", "105804.725000", "105804.727000", "105804.730000", "105804.732000", "105804.735000", "105804.737000", "105804.740000", "105804.743000", "105804.745000", "105804.748000", "105804.750000", "105804.753000", "105804.755000", "105804.758000", "105804.760000", "105804.763000", "105804.765000", "105804.768000", "105804.770000", "105804.773000", "105845.137000", "105845.139000", "105845.142000", "105845.144000", "105845.147000", "105845.150000", "105845.152000", "105845.155000", "105845.157000", "105845.160000", "105845.169000", "105845.171000", "105845.174000", "105845.176000", "105845.179000", "105845.181000", "105845.184000", "105845.186000", "105845.189000", "105845.191000", "105845.194000", "105845.196000", "105845.199000", "105845.201000", "105845.204000", "105845.206000", "105845.209000", "105924.698000", "105924.701000", "105924.703000", "105924.706000", "105924.708000", "105924.711000", "105924.713000", "105924.716000", "105924.718000", "105924.721000", "105924.723000", "105924.726000", "105924.728000", "105924.731000", "105924.733000", "105924.736000", "105924.738000", "105924.741000", "105924.743000", "105924.746000", "105924.748000", "105924.751000", "105924.754000", "105924.756000", "105924.758000", "105924.761000", "105924.764000", "110004.741000", "110004.743000", "110004.746000", "110004.748000", "110004.751000", "110004.759000", "110004.762000", "110004.764000", "110004.767000", "110004.769000", "110004.772000", "110004.774000", "110004.777000", "110004.779000", "110004.782000", "110004.784000", "110004.787000", "110004.790000", "110004.792000", "110004.794000", "110004.797000", "110004.800000", "110004.802000", "110004.805000", "110004.807000", "110004.810000", "110044.715000", "110044.717000", "110044.720000", "110044.722000", "110044.725000", "110044.727000", "110044.730000", "110044.732000", "110044.735000", "110044.737000", "110044.740000", "110044.742000", "110044.745000", "110044.748000", "110044.750000", "110044.753000", "110044.755000", "110044.758000", "110044.760000", "110044.763000", "110044.765000", "110044.768000", "110044.836000", "110044.839000", "110044.842000", "110044.844000", "110044.846000", "110124.711000", "110124.714000", "110124.716000", "110124.719000", "110124.721000", "110124.724000", "110124.726000", "110124.729000", "110124.731000", "110124.734000", "110124.736000", "110124.739000", "110124.741000", "110124.744000", "110124.746000", "110124.749000", "110124.751000", "110124.753000", "110124.756000", "110124.758000", "110124.761000", "110124.763000", "110124.766000", "110124.829000", "110124.832000", "110124.834000", "110124.837000", "110204.714000", "110204.717000", "110204.719000", "110204.722000", "110204.724000", "110204.727000", "110204.729000", "110204.732000", "110204.734000", "110204.737000", "110204.739000", "110204.742000", "110204.744000", "110204.747000", "110204.749000", "110204.752000", "110204.754000", "110204.757000", "110204.759000", "110204.762000", "110204.764000", "110204.767000", "110204.769000", "110204.772000", "110204.774000", "110204.777000", "110204.779000", "110244.699000", "110244.702000", "110244.704000", "110244.707000", "110244.709000", "110244.712000", "110244.714000", "110244.717000", "110244.719000", "110244.722000", "110244.724000", "110244.727000", "110244.729000", "110244.732000", "110244.734000", "110244.737000", "110244.739000", "110244.742000", "110244.744000", "110244.747000", "110244.749000", "110244.752000", "110244.754000", "110244.756000", "110244.759000", "110244.761000", "110244.764000", "110324.713000", "110324.716000", "110324.718000", "110324.721000", "110324.723000", "110324.726000", "110324.728000", "110324.731000", "110324.733000", "110324.736000", "110324.738000", "110324.741000", "110324.743000", "110324.745000", "110324.748000", "110324.750000", "110324.753000", "110324.755000", "110324.758000", "110324.760000", "110324.763000", "110324.765000", "110324.768000", "110324.854000", "110324.857000", "110324.859000", "110324.862000", "110404.704000", "110404.707000", "110404.709000", "110404.712000", "110404.714000", "110404.717000", "110404.719000", "110404.722000", "110404.724000", "110404.727000", "110404.729000", "110404.732000", "110404.734000", "110404.736000", "110404.739000", "110404.741000", "110404.744000", "110404.746000", "110404.749000", "110404.751000", "110404.754000", "110404.756000", "110404.759000", "110404.761000", "110404.764000", "110404.766000", "110404.818000", "110406.482000"],
