{
  "AcquisitionMatrixPE": 104,
  "AcquisitionNumber": 1,
  "AcquisitionTime": "11:24:18.170000",
  "BandwidthPerPixelPhaseEncode": 17.17,
  "BaseResolution": 104,
  "BodyPartExamined": "BRAIN",
  "CoilCombinationMethod": "Sum of Squares",
  "ConsistencyInfo": "N4_VE11C_LATEST_20160120",
  "ConversionSoftware": "dcm2niix",
  "ConversionSoftwareVersion": "v1.0.20211006",
  "DerivedVendorReportedEchoSpacing": 0.000560011,
  "DeviceSerialNumber": "167006",
  "DwellTime": 2.1e-06,
  "EchoTime": 0.037,
  "EchoTrainLength": 104,
  "EffectiveEchoSpacing": 0.000560011,
  "FlipAngle": 52,
  "HeudiconvVersion": "0.10.0",
  "ImageComments": "Unaliased MB4/PE3/LB",
  "ImageOrientationPatientDICOM": [0.999517, 0.0102164, 0.0293564, 0.0071525, 0.843504, -0.537075],
  "ImageOrientationText": "Tra>Cor(-32.5)>Sag(1.7)",
  "ImageType": [
    "ORIGINAL",
    "PRIMARY",
    "M",
    "MB",
    "ND",
    "MOSAIC"
],
  "ImagingFrequency": 123.259,
  "InPlanePhaseEncodingDirectionDICOM": "COL",
  "InstitutionAddress": "Chemin Queen-Mary 4565,Montreal,District,CA,H3W 1W5",
  "InstitutionName": "IUGM",
  "InstitutionalDepartmentName": "Department",
  "MRAcquisitionType": "2D",
  "MagneticFieldStrength": 3,
  "Manufacturer": "Siemens",
  "ManufacturersModelName": "Prisma_fit",
  "MatrixCoilMode": "SENSE",
  "Modality": "MR",
  "MultibandAccelerationFactor": 4,
  "PartialFourier": 1,
  "PatientPosition": "HFS",
  "PercentPhaseFOV": 100,
  "PercentSampling": 100,
  "PhaseEncodingDirection": "j",
  "PhaseEncodingSteps": 104,
  "PhaseResolution": 1,
  "PixelBandwidth": 2290,
  "ProcedureStepDescription": "games^mario",
  "ProtocolName": "func_task-mario_run-03",
  "PulseSequenceDetails": "%CustomerSeq%\\cmrr_mbep2d_bold",
  "ReceiveCoilActiveElements": "HC1-7;NC1,2",
  "ReceiveCoilName": "HeadNeck_64",
  "ReconMatrixPE": 104,
  "RepetitionTime": 1.49,
  "SAR": 0.0484013,
  "ScanOptions": "FS",
  "ScanningSequence": "EP",
  "SequenceName": "epfid2d1_104",
  "SequenceVariant": "SK\\SS",
  "SeriesDescription": "func_task-mario_run-03",
  "SeriesNumber": 22,
  "ShimSetting": [623, -7171, -8878, 208, 29, -161, 41, 8],
  "SliceThickness": 2,
  "SliceTiming": [0, 0.785, 0.1, 0.8825, 0.1975, 0.98, 0.295, 1.08, 0.3925, 1.1775, 0.49, 1.275, 0.59, 1.3725, 0.6875, 0, 0.785, 0.1, 0.8825, 0.1975, 0.98, 0.295, 1.08, 0.3925, 1.1775, 0.49, 1.275, 0.59, 1.3725, 0.6875, 0, 0.785, 0.1, 0.8825, 0.1975, 0.98, 0.295, 1.08, 0.3925, 1.1775, 0.49, 1.275, 0.59, 1.3725, 0.6875, 0, 0.785, 0.1, 0.8825, 0.1975, 0.98, 0.295, 1.08, 0.3925, 1.1775, 0.49, 1.275, 0.59, 1.3725, 0.6875],
  "SoftwareVersions": "syngo MR E11",
  "SpacingBetweenSlices": 2,
  "StationName": "MRC35049",
  "TaskName": "mario",
  "TotalReadoutTime": 0.0576811,
  "TxRefAmp": 276.518,
  "WipMemBlock": "38d943b9-70e2-455d-867a-291fa337c9bd||Sequence: R016 ve11c/master r/e634e98; Dec 19 2017 11:00:25 by eja",
  "dcmmeta_affine": [
    [-1.9990335702896118, 0.014304996468126774, 0.06049840897321701, 104.87452697753906],
    [-0.02043275721371174, 1.6870079040527344, -1.0740514993667603, -46.98534393310547],
    [0.058712802827358246, 1.0741506814956665, 1.6860466003417969, -102.60006713867188],
    [0.0, 0.0, 0.0, 1.0]
],
  "dcmmeta_reorient_transform": [
    [0.0, -1.0, 0.0, 103.0],
    [1.0, 0.0, 0.0, 0.0],
    [0.0, 0.0, 1.0, 0.0],
    [0.0, 0.0, 0.0, 1.0]
],
  "dcmmeta_shape": [104, 104, 60, 443],
  "dcmmeta_slice_dim": 2,
  "dcmmeta_version": 0.6,
  "global": {
    "const": {
      "AcquisitionMatrix": [104, 0, 0, 104],
      "AngioFlag": "N",
      "BitsAllocated": 16,
      "BitsStored": 16,
      "BodyPartExamined": "BRAIN",
      "Columns": 832,
      "EchoNumbers": 1,
      "EchoTime": 37.0,
      "EchoTrainLength": 104,
      "FlipAngle": 52.0,
      "HighBit": 15,
      "ImageOrientationPatient": [0.99951679692768, 0.01021637890409, 0.02935640069093, 0.00715249812108, 0.84350396968321, -0.5370753158536],
      "ImagePositionPatient": [-839.20318468785, -748.28488919822, 377.65681759116],
      "ImageType": [
        "ORIGINAL",
        "PRIMARY",
        "M",
        "MB",
        "ND",
        "MOSAIC"
],
      "ImagedNucleus": "1H",
      "ImagingFrequency": 123.258866,
      "InPlanePhaseEncodingDirection": "COL",
      "MRAcquisitionType": "2D",
      "MagneticFieldStrength": 3.0,
      "Manufacturer": "SIEMENS",
      "ManufacturerModelName": "Prisma_fit",
      "Modality": "MR",
      "NumberOfAverages": 1.0,
      "NumberOfPhaseEncodingSteps": 104,
      "PercentPhaseFieldOfView": 100.0,
      "PercentSampling": 100.0,
      "PerformedProcedureStepStartTime": "102958.210000",
      "PhotometricInterpretation": "MONOCHROME2",
      "PixelBandwidth": 2290.0,
      "PixelRepresentation": 0,
      "PixelSpacing": [2.0, 2.0],
      "ProtocolName": "func_task-mario_run-03",
      "RepetitionTime": 1490.0,
      "Rows": 832,
      "SAR": 0.04840133968183,
      "SamplesPerPixel": 1,
      "ScanOptions": "FS",
      "ScanningSequence": "EP",
      "SequenceName": "epfid2d1_104",
      "SequenceVariant": [
        "SK",
        "SS"
],
      "SeriesDescription": "func_task-mario_run-03",
      "SeriesNumber": 22,
      "SeriesTime": "112524.598000",
      "SliceLocation": -58.089538342082,
      "SliceThickness": 2.0,
      "SmallestImagePixelValue": 0,
      "SoftwareVersions": "syngo MR E11",
      "SpacingBetweenSlices": 1.9999999642975,
      "SpecificCharacterSet": "ISO_IR 100",
      "StudyID": "1",
      "StudyTime": "102958.133000",
      "TransmitCoilName": "Body",
      "VariableFlipAngleFlag": "N",
      "WindowCenterWidthExplanation": "Algo1",
      "dBdt": 0.0},
    "slices": {}
  },
  "time": {
    "samples": {
      "AcquisitionNumber": [1, 2, 3, 4, 5, 6, 7, 8, 9, 10, 11, 12, 13, 14, 15, 16, 17, 18, 19, 20, 21, 22, 23, 24, 25, 26, 27, 28, 29, 30, 31, 32, 33, 34, 35, 36, 37, 38, 39, 40, 41, 42, 43, 44, 45, 46, 47, 48, 49, 50, 51, 52, 53, 54, 55, 56, 57, 58, 59, 60, 61, 62, 63, 64, 65, 66, 67, 68, 69, 70, 71, 72, 73, 74, 75, 76, 77, 78, 79, 80, 81, 82, 83, 84, 85, 86, 87, 88, 89, 90, 91, 92, 93, 94, 95, 96, 97, 98, 99, 100, 101, 102, 103, 104, 105, 106, 107, 108, 109, 110, 111, 112, 113, 114, 115, 116, 117, 118, 119, 120, 121, 122, 123, 124, 125, 126, 127, 128, 129, 130, 131, 132, 133, 134, 135, 136, 137, 138, 139, 140, 141, 142, 143, 144, 145, 146, 147, 148, 149, 150, 151, 152, 153, 154, 155, 156, 157, 158, 159, 160, 161, 162, 163, 164, 165, 166, 167, 168, 169, 170, 171, 172, 173, 174, 175, 176, 177, 178, 179, 180, 181, 182, 183, 184, 185, 186, 187, 188, 189, 190, 191, 192, 193, 194, 195, 196, 197, 198, 199, 200, 201, 202, 203, 204, 205, 206, 207, 208, 209, 210, 211, 212, 213, 214, 215, 216, 217, 218, 219, 220, 221, 222, 223, 224, 225, 226, 227, 228, 229, 230, 231, 232, 233, 234, 235, 236, 237, 238, 239, 240, 241, 242, 243, 244, 245, 246, 247, 248, 249, 250, 251, 252, 253, 254, 255, 256, 257, 258, 259, 260, 261, 262, 263, 264, 265, 266, 267, 268, 269, 270, 271, 272, 273, 274, 275, 276, 277, 278, 279, 280, 281, 282, 283, 284, 285, 286, 287, 288, 289, 290, 291, 292, 293, 294, 295, 296, 297, 298, 299, 300, 301, 302, 303, 304, 305, 306, 307, 308, 309, 310, 311, 312, 313, 314, 315, 316, 317, 318, 319, 320, 321, 322, 323, 324, 325, 326, 327, 328, 329, 330, 331, 332, 333, 334, 335, 336, 337, 338, 339, 340, 341, 342, 343, 344, 345, 346, 347, 348, 349, 350, 351, 352, 353, 354, 355, 356, 357, 358, 359, 360, 361, 362, 363, 364, 365, 366, 367, 368, 369, 370, 371, 372, 373, 374, 375, 376, 377, 378, 379, 380, 381, 382, 383, 384, 385, 386, 387, 388, 389, 390, 391, 392, 393, 394, 395, 396, 397, 398, 399, 400, 401, 402, 403, 404, 405, 406, 407, 408, 409, 410, 411, 412, 413, 414, 415, 416, 417, 418, 419, 420, 421, 422, 423, 424, 425, 426, 427, 428, 429, 430, 431, 432, 433, 434, 435, 436, 437, 438, 439, 440, 441, 442, 443],
      "AcquisitionTime": ["112418.170000", "112419.660000", "112421.150000", "112422.640000", "112424.130000", "112425.620000", "112427.110000", "112428.600000", "112430.090000", "112431.580000", "112433.070000", "112434.560000", "112436.050000", "112437.540000", "112439.030000", "112440.520000", "112442.010000", "112443.500000", "112444.990000", "112446.480000", "112447.970000", "112449.460000", "112450.950000", "112452.440000", "112453.930000", "112455.420000", "112456.910000", "112458.400000", "112459.890000", "112501.380000", "112502.870000", "112504.360000", "112505.850000", "112507.340000", "112508.830000", "112510.320000", "112511.810000", "112513.300000", "112514.790000", "112516.280000", "112517.770000", "112519.260000", "112520.750000", "112522.240000", "112523.730000", "112525.220000", "112526.710000", "112528.200000", "112529.690000", "112531.180000", "112532.670000", "112534.160000", "112535.650000", "112537.140000", "112538.630000", "112540.120000", "112541.610000", "112543.100000", "112544.590000", "112546.080000", "112547.570000", "112549.060000", "112550.550000", "112552.040000", "112553.530000", "112555.020000", "112556.510000", "112558.000000", "112559.490000", "112600.980000", "112602.470000", "112603.960000", "112605.450000", "112606.940000", "112608.430000", "112609.920000", "112611.410000", "112612.900000", "112614.390000", "112615.880000", "112617.370000", "112618.860000", "112620.350000", "112621.840000", "112623.330000", "112624.820000", "112626.310000", "112627.800000", "112629.290000", "112630.780000", "112632.270000", "112633.760000", "112635.250000", "112636.740000", "112638.230000", "112639.720000", "112641.210000", "112642.700000", "112644.190000", "112645.680000", "112647.170000", "112648.660000", "112650.150000", "112651.640000", "112653.130000", "112654.620000", "112656.110000", "112657.600000", "112659.090000", "112700.580000", "112702.070000", "112703.560000", "112705.050000", "112706.540000", "112708.030000", "112709.520000", "112711.010000", "112712.500000", "112713.990000", "112715.480000", "112716.970000", "112718.460000", "112719.950000", "112721.440000", "112722.930000", "112724.420000", "112725.910000", "112727.400000", "112728.890000", "112730.380000", "112731.870000", "112733.360000", "112734.850000", "112736.340000", "112737.830000", "112739.320000", "112740.810000", "112742.300000", "112743.790000", "112745.280000", "112746.770000", "112748.260000", "112749.750000", "112751.240000", "112752.730000", "112754.220000", "112755.710000", "112757.200000", "112758.690000", "112800.180000", "112801.670000", "112803.160000", "112804.650000", "112806.140000", "112807.630000", "112809.120000", "112810.610000", "112812.100000", "112813.590000", "112815.080000", "112816.570000", "112818.060000", "112819.550000", "112821.040000", "112822.530000", "112824.020000", "112825.510000", "112827.000000", "112828.490000", "112829.980000", "112831.470000", "112832.960000", "112834.450000", "112835.940000", "112837.430000", "112838.920000", "112840.410000", "112841.900000", "112843.390000", "112844.880000", "112846.370000", "112847.860000", "112849.350000", "112850.840000", "112852.330000", "112853.820000", "112855.310000", "112856.800000", "112858.290000", "112859.780000", "112901.270000", "112902.760000", "112904.250000", "112905.740000", "112907.230000", "112908.720000", "112910.210000", "112911.700000", "112913.190000", "112914.680000", "112916.170000", "112917.660000", "112919.150000", "112920.640000", "112922.130000", "112923.620000", "112925.110000", "112926.600000", "112928.090000", "112929.580000", "112931.070000", "112932.560000", "112934.050000", "112935.540000", "112937.030000", "112938.520000", "112940.010000", "112941.500000", "112942.990000", "112944.480000", "112945.970000", "112947.460000", "112948.950000", "112950.440000", "112951.930000", "112953.420000", "112954.910000", "112956.400000", "112957.890000", "112959.380000", "113000.870000", "113002.360000", "113003.850000", "113005.340000", "113006.830000", "113008.320000", "113009.810000", "113011.300000", "113012.790000", "113014.280000", "113015.770000", "113017.260000", "113018.750000", "113020.240000", "113021.730000", "113023.220000", "113024.710000", "113026.200000", "113027.690000", "113029.180000", "113030.670000", "113032.160000", "113033.650000", "113035.140000", "113036.630000", "113038.120000", "113039.610000", "113041.100000", "113042.590000", "113044.080000", "113045.570000", "113047.060000", "113048.550000", "113050.040000", "113051.530000", "113053.020000", "113054.510000", "113056.000000", "113057.490000", "113058.980000", "113100.470000", "113101.960000", "113103.450000", "113104.940000", "113106.430000", "113107.920000", "113109.410000", "113110.900000", "113112.390000", "113113.880000", "113115.370000", "113116.860000", "113118.350000", "113119.840000", "113121.330000", "113122.820000", "113124.310000", "113125.800000", "113127.290000", "113128.780000", "113130.270000", "113131.760000", "113133.250000", "113134.740000", "113136.230000", "113137.720000", "113139.210000", "113140.700000", "113142.190000", "113143.680000", "113145.170000", "113146.660000", "113148.150000", "113149.640000", "113151.130000", "113152.620000", "113154.110000", "113155.600000", "113157.090000", "113158.580000", "113200.070000", "113201.560000", "113203.050000", "113204.540000", "113206.030000", "113207.520000", "113209.010000", "113210.500000", "113211.990000", "113213.480000", "113214.970000", "113216.460000", "113217.950000", "113219.440000", "113220.930000", "113222.420000", "113223.910000", "113225.400000", "113226.890000", "113228.380000", "113229.870000", "113231.360000", "113232.850000", "113234.340000", "113235.830000", "113237.320000", "113238.810000", "113240.300000", "113241.790000", "113243.280000", "113244.770000", "113246.260000", "113247.750000", "113249.240000", "113250.730000", "113252.220000", "113253.710000", "113255.200000", "113256.690000", "113258.180000", "113259.670000", "113301.160000", "113302.650000", "113304.140000", "113305.630000", "113307.120000", "113308.610000", "113310.100000", "113311.590000", "113313.080000", "113314.570000", "113316.060000", "113317.550000", "113319.040000", "113320.530000", "113322.020000", "113323.510000", "113325.000000", "113326.490000", "113327.980000", "113329.470000", "113330.960000", "113332.450000", "113333.940000", "113335.430000", "113336.920000", "113338.410000", "113339.900000", "113341.390000", "113342.880000", "113344.370000", "113345.860000", "113347.350000", "113348.840000", "113350.330000", "113351.820000", "113353.310000", "113354.800000", "113356.290000", "113357.780000", "113359.270000", "113400.760000", "113402.250000", "113403.740000", "113405.230000", "113406.720000", "113408.210000", "113409.700000", "113411.190000", "113412.680000", "113414.170000", "113415.660000", "113417.150000", "113418.640000", "113420.130000", "113421.620000", "113423.110000", "113424.600000", "113426.090000", "113427.580000", "113429.070000", "113430.560000", "113432.050000", "113433.540000", "113435.030000", "113436.520000", "113438.010000", "113439.500000", "113440.990000", "113442.480000", "113443.970000", "113445.460000", "113446.950000", "113448.440000", "113449.930000", "113451.420000", "113452.910000", "113454.400000", "113455.890000", "113457.380000", "113458.870000", "113500.360000", "113501.850000", "113503.340000", "113504.830000", "113506.320000", "113507.810000", "113509.300000", "113510.790000", "113512.280000", "113513.770000", "113515.260000", "113516.750000"],
      "ContentTime": ["112524.601000", "112524.613000", "112524.616000", "112524.619000", "112524.623000", "112524.626000", "112524.629000", "112524.633000", "112524.636000", "112524.639000", "112524.642000", "112524.646000", "112524.649000", "112544.563000", "112544.567000", "112544.570000", "112544.573000", "112544.577000", "112544.580000", "112544.583000", "112544.587000", "112544.590000", "112544.593000", "112544.597000", "112544.600000", "112544.603000", "112544.606000", "112544.610000", "112544.613000", "112544.616000", "112544.620000", "112544.623000", "112544.626000", "112604.563000", "112604.575000", "112604.578000", "112604.581000", "112604.585000", "112604.588000", "112604.602000", "112604.605000", "112604.608000", "112604.612000", "112604.615000", "112604.618000", "112604.621000", "112604.625000", "112604.628000", "112604.631000", "112604.634000", "112604.638000", "112604.641000", "112604.644000", "112624.563000", "112624.568000", "112624.572000", "112624.576000", "112624.580000", "112624.583000", "112624.586000", "112624.590000", "112624.593000", "112624.596000", "112624.600000", "112624.603000", "112624.606000", "112624.610000", "112624.613000", "112624.616000", "112624.620000", "112624.623000", "112624.626000", "112624.630000", "112644.563000", "112644.567000", "112644.570000", "112644.574000", "112644.577000", "112644.580000", "112644.584000", "112644.587000", "112644.590000", "112644.594000", "112644.597000", "112644.600000", "112644.604000", "112644.607000", "112644.610000", "112644.614000", "112644.617000", "112644.621000", "112644.625000", "112644.628000", "112644.631000", "112724.563000", "112724.567000", "112724.570000", "112724.574000", "112724.577000", "112724.581000", "112724.584000", "112724.588000", "112724.591000", "112724.594000", "112724.598000", "112724.601000", "112724.604000", "112724.608000", "112724.611000", "112724.614000", "112724.618000", "112724.621000", "112724.624000", "112724.628000", "112724.631000", "112724.634000", "112724.637000", "112724.641000", "112724.644000", "112724.647000", "112724.650000", "112724.654000", "112724.657000", "112724.660000", "112804.563000", "112804.567000", "112804.570000", "112804.574000", "112804.578000", "112804.581000", "112804.584000", "112804.588000", "112804.591000", "112804.595000", "112804.598000", "112804.601000", "112804.604000", "112804.608000", "112804.611000", "112804.614000", "112804.618000", "112804.632000", "112804.636000", "112804.639000", "112804.642000", "112804.646000", "112804.649000", "112804.652000", "112804.656000", "112804.659000", "112804.662000", "112844.563000", "112844.567000", "112844.570000", "112844.574000", "112844.577000", "112844.580000", "112844.584000", "112844.587000", "112844.590000", "112844.594000", "112844.597000", "112844.600000", "112844.604000", "112844.607000", "112844.610000", "112844.614000", "112844.617000", "112844.620000", "112844.624000", "112844.627000", "112844.630000", "112844.634000", "112844.637000", "112844.640000", "112844.643000", "112844.647000", "112844.650000", "112924.562000", "112924.566000", "112924.569000", "112924.572000", "112924.576000", "112924.579000", "112924.582000", "112924.586000", "112924.589000", "112924.593000", "112924.596000", "112924.599000", "112924.603000", "112924.606000", "112924.609000", "112924.613000", "112924.616000", "112924.619000", "112924.622000", "112924.626000", "112924.629000", "112924.633000", "112924.636000", "112924.639000", "112924.643000", "112924.646000", "112924.649000", "113004.563000", "113004.567000", "113004.570000", "113004.573000", "113004.577000", "113004.581000", "113004.584000", "113004.588000", "113004.591000", "113004.595000", "113004.598000", "113004.601000", "113004.605000", "113004.608000", "113004.611000", "113004.615000", "113004.618000", "113004.622000", "113004.625000", "113004.628000", "113004.631000", "113004.635000", "113004.638000", "113004.641000", "113004.645000", "113004.648000", "113004.651000", "113044.564000", "113044.570000", "113044.574000", "113044.578000", "113044.581000", "113044.585000", "113044.588000", "113044.592000", "113044.605000", "113044.608000", "113044.612000", "113044.615000", "113044.618000", "113044.622000", "113044.625000", "113044.628000", "113044.632000", "113044.635000", "113044.638000", "113044.641000", "113044.645000", "113044.648000", "113044.651000", "113044.655000", "113044.658000", "113044.661000", "113124.563000", "113124.567000", "113124.570000", "113124.574000", "113124.577000", "113124.580000", "113124.583000", "113124.587000", "113124.590000", "113124.594000", "113124.597000", "113124.600000", "113124.604000", "113124.607000", "113124.610000", "113124.614000", "113124.617000", "113124.620000", "113124.624000", "113124.627000", "113124.630000", "113124.634000", "113124.637000", "113124.640000", "113124.644000", "113124.647000", "113124.650000", "113204.563000", "113204.567000", "113204.571000", "113204.574000", "113204.577000", "113204.581000", "113204.584000", "113204.587000", "113204.591000", "113204.594000", "113204.597000", "113204.601000", "113204.604000", "113204.607000", "113204.611000", "113204.614000", "113204.618000", "113204.622000", "113204.625000", "113204.628000", "113204.632000", "113204.635000", "113204.638000", "113204.642000", "113204.645000", "113204.649000", "113204.652000", "113244.563000", "113244.567000", "113244.571000", "113244.574000", "113244.578000", "113244.581000", "113244.584000", "113244.588000", "113244.591000", "113244.595000", "113244.598000", "113244.602000", "113244.605000", "113244.608000", "113244.611000", "113244.615000", "113244.629000", "113244.632000", "113244.636000", "113244.640000", "113244.643000", "113244.646000", "113244.649000", "113244.669000", "113244.673000", "113244.676000", "113244.679000", "113324.564000", "113324.567000", "113324.571000", "113324.574000", "113324.577000", "113324.581000", "113324.584000", "113324.587000", "113324.591000", "113324.594000", "113324.597000", "113324.601000", "113324.604000", "113324.608000", "113324.611000", "113324.614000", "113324.618000", "113324.621000", "113324.624000", "113324.628000", "113324.631000", "113324.645000", "113324.648000", "113324.652000", "113324.655000", "113324.658000", "113324.662000", "113404.562000", "113404.566000", "113404.569000", "113404.573000", "113404.576000", "113404.581000", "113404.584000", "113404.588000", "113404.591000", "113404.594000", "113404.598000", "113404.601000", "113404.604000", "113404.608000", "113404.611000", "113404.614000", "113404.618000", "113404.621000", "113404.624000", "113404.628000", "113404.631000", "113404.634000", "113404.637000", "113404.641000", "113404.644000", "113404.648000", "113404.651000", "113444.563000", "113444.567000", "113444.570000", "113444.574000", "113444.577000", "113444.580000", "113444.583000", "113444.587000", "113444.590000", "113444.594000", "113444.597000", "113444.600000", "113444.603000", "113444.607000", "113444.610000", "113444.613000", "113444.617000", "113444.620000", "113444.623000", "113444.627000", "113444.630000", "113444.634000", "113444.637000", "113444.640000", "113444.644000", "113444.647000", "113444.650000", "113519.436000", "113519.440000", "113519.444000", "113519.447000", "113519.450000", "113519.454000", "113519.457000", "113519.460000", "113519.464000", "113519.467000", "113519.470000", "113519.473000", "113519.477000", "113519.480000", "113519.492000", "113519.496000", "113519.499000", "113519.503000", "113519.506000", "113519.509000", "113519.513000", "113519.516000", "113519.519000"],
