{
  "AcquisitionMatrixPE": 104,
  "AcquisitionNumber": 1,
  "AcquisitionTime": "11:20:13.325000",
  "BandwidthPerPixelPhaseEncode": 17.17,
  "BaseResolution": 104,
  "BodyPartExamined": "BRAIN",
  "CoilCombinationMethod": "Sum of Squares",
  "ConsistencyInfo": "N4_VE11C_LATEST_20160120",
  "ConversionSoftware": "dcm2niix",
  "ConversionSoftwareVersion": "v1.0.20211006",
  "DerivedVendorReportedEchoSpacing": 0.000560011,
  "DeviceSerialNumber": "167006",
  "DwellTime": 2.1e-06,
  "EchoTime": 0.037,
  "EchoTime1": 0.037,
  "EchoTime2": 0.001,
  "EchoTrainLength": 104,
  "EffectiveEchoSpacing": 0.000560011,
  "FlipAngle": 52,
  "HeudiconvVersion": "0.10.0",
  "ImageComments": "Unaliased MB4/PE3/LB",
  "ImageOrientationPatientDICOM": [0.996736, 0.0773384, 0.0231477, -0.062884, 0.92362, -0.378116],
  "ImageOrientationText": "Tra>Cor(-22.1)>Sag(2.9)",
  "ImageType": [
    "ORIGINAL",
    "PRIMARY",
    "P",
    "MB",
    "ND",
    "MOSAIC",
    "PHASE"
],
  "ImagingFrequency": 123.259,
  "InPlanePhaseEncodingDirectionDICOM": "COL",
  "InstitutionAddress": "Chemin Queen-Mary 4565,Montreal,District,CA,H3W 1W5",
  "InstitutionName": "IUGM",
  "InstitutionalDepartmentName": "Department",
  "MRAcquisitionType": "2D",
  "MagneticFieldStrength": 3,
  "Manufacturer": "Siemens",
  "ManufacturersModelName": "Prisma_fit",
  "MatrixCoilMode": "SENSE",
  "Modality": "MR",
  "MultibandAccelerationFactor": 4,
  "PartialFourier": 1,
  "PatientPosition": "HFS",
  "PercentPhaseFOV": 100,
  "PercentSampling": 100,
  "PhaseEncodingDirection": "j",
  "PhaseEncodingSteps": 104,
  "PhaseResolution": 1,
  "PixelBandwidth": 2290,
  "ProcedureStepDescription": "games^mario",
  "ProtocolName": "func_task-mario_run-02",
  "PulseSequenceDetails": "%CustomerSeq%\\cmrr_mbep2d_bold",
  "ReceiveCoilActiveElements": "HC1-7;NC1,2",
  "ReceiveCoilName": "HeadNeck_64",
  "ReconMatrixPE": 104,
  "RepetitionTime": 1.49,
  "SAR": 0.0381943,
  "ScanOptions": "FS",
  "ScanningSequence": "EP",
  "SequenceName": "epfid2d1_104",
  "SequenceVariant": "SK\\SS",
  "SeriesDescription": "func_task-mario_run-02",
  "SeriesNumber": 14,
  "ShimSetting": [622, -7183, -8847, 625, 48, 20, -48, -1],
  "SliceThickness": 2,
  "SliceTiming": [0, 0.7825, 0.0975, 0.88, 0.195, 0.98, 0.2925, 1.0775, 0.39, 1.175, 0.49, 1.2725, 0.5875, 1.37, 0.685, 0, 0.7825, 0.0975, 0.88, 0.195, 0.98, 0.2925, 1.0775, 0.39, 1.175, 0.49, 1.2725, 0.5875, 1.37, 0.685, 0, 0.7825, 0.0975, 0.88, 0.195, 0.98, 0.2925, 1.0775, 0.39, 1.175, 0.49, 1.2725, 0.5875, 1.37, 0.685, 0, 0.7825, 0.0975, 0.88, 0.195, 0.98, 0.2925, 1.0775, 0.39, 1.175, 0.49, 1.2725, 0.5875, 1.37, 0.685],
  "SoftwareVersions": "syngo MR E11",
  "SpacingBetweenSlices": 2,
  "StationName": "MRC35049",
  "TaskName": "mario",
  "TotalReadoutTime": 0.0576811,
  "TxRefAmp": 257.266,
  "WipMemBlock": "cfc88696-99f8-4765-abd9-ef8474cab635||Sequence: R016 ve11c/master r/e634e98; Dec 19 2017 11:00:25 by eja",
  "dcmmeta_affine": [
    [-1.9934723377227783, -0.1257680058479309, 0.10124505311250687, 109.39177703857422],
    [-0.15467673540115356, 1.8472398519515991, -0.7508528828620911, -50.04135513305664],
    [0.04629531502723694, 0.7562323212623596, 1.8509374856948853, -73.26165008544922],
    [0.0, 0.0, 0.0, 1.0]
],
  "dcmmeta_reorient_transform": [
    [0.0, -1.0, 0.0, 103.0],
    [1.0, 0.0, 0.0, 0.0],
    [0.0, 0.0, 1.0, 0.0],
    [0.0, 0.0, 0.0, 1.0]
],
  "dcmmeta_shape": [104, 104, 60, 449],
  "dcmmeta_slice_dim": 2,
  "dcmmeta_version": 0.6,
  "global": {
    "const": {
      "AcquisitionMatrix": [104, 0, 0, 104],
      "AngioFlag": "N",
      "BitsAllocated": 16,
      "BitsStored": 16,
      "BodyPartExamined": "BRAIN",
      "Columns": 832,
      "EchoNumbers": 1,
      "EchoTime": 37.0,
      "EchoTrainLength": 104,
      "FlipAngle": 52.0,
      "HighBit": 15,
      "ImageOrientationPatient": [0.99673615484714, 0.0773383706935, 0.02314765731169, -0.0628840008414, 0.92361992906136, -0.3781161581828],
      "ImagePositionPatient": [-776.28203776183, -868.92199259087, 263.04735092175],
      "ImageType": [
        "ORIGINAL",
        "PRIMARY",
        "P",
        "MB",
        "ND",
        "MOSAIC"
],
      "ImagedNucleus": "1H",
      "ImagingFrequency": 123.258877,
      "InPlanePhaseEncodingDirection": "COL",
      "LargestImagePixelValue": 4095,
      "MRAcquisitionType": "2D",
      "MagneticFieldStrength": 3.0,
      "Manufacturer": "SIEMENS",
      "ManufacturerModelName": "Prisma_fit",
      "Modality": "MR",
      "NumberOfAverages": 1.0,
      "NumberOfPhaseEncodingSteps": 104,
      "PercentPhaseFieldOfView": 100.0,
      "PercentSampling": 100.0,
      "PerformedProcedureStepStartTime": "101158.713000",
      "PhotometricInterpretation": "MONOCHROME2",
      "PixelBandwidth": 2290.0,
      "PixelRepresentation": 0,
      "PixelSpacing": [2.0, 2.0],
      "ProtocolName": "func_task-mario_run-02",
      "RepetitionTime": 1490.0,
      "RescaleIntercept": -4096.0,
      "RescaleSlope": 2.0,
      "RescaleType": "US",
      "Rows": 832,
      "SAR": 0.0381942486987,
      "SamplesPerPixel": 1,
      "ScanOptions": "FS",
      "ScanningSequence": "EP",
      "SequenceName": "epfid2d1_104",
      "SequenceVariant": [
        "SK",
        "SS"
],
      "SeriesDescription": "func_task-mario_run-02",
      "SeriesNumber": 14,
      "SeriesTime": "112128.777000",
      "SliceLocation": -43.476827220714,
      "SliceThickness": 2.0,
      "SmallestImagePixelValue": 0,
      "SoftwareVersions": "syngo MR E11",
      "SpacingBetweenSlices": 2.0000000060483,
      "SpecificCharacterSet": "ISO_IR 100",
      "StudyID": "1",
      "StudyTime": "101158.641000",
      "TransmitCoilName": "Body",
      "VariableFlipAngleFlag": "N",
      "WindowCenterWidthExplanation": "Algo1",
      "dBdt": 0.0},
    "slices": {}
  },
  "time": {
    "samples": {
      "AcquisitionNumber": [1, 2, 3, 4, 5, 6, 7, 8, 9, 10, 11, 12, 13, 14, 15, 16, 17, 18, 19, 20, 21, 22, 23, 24, 25, 26, 27, 28, 29, 30, 31, 32, 33, 34, 35, 36, 37, 38, 39, 40, 41, 42, 43, 44, 45, 46, 47, 48, 49, 50, 51, 52, 53, 54, 55, 56, 57, 58, 59, 60, 61, 62, 63, 64, 65, 66, 67, 68, 69, 70, 71, 72, 73, 74, 75, 76, 77, 78, 79, 80, 81, 82, 83, 84, 85, 86, 87, 88, 89, 90, 91, 92, 93, 94, 95, 96, 97, 98, 99, 100, 101, 102, 103, 104, 105, 106, 107, 108, 109, 110, 111, 112, 113, 114, 115, 116, 117, 118, 119, 120, 121, 122, 123, 124, 125, 126, 127, 128, 129, 130, 131, 132, 133, 134, 135, 136, 137, 138, 139, 140, 141, 142, 143, 144, 145, 146, 147, 148, 149, 150, 151, 152, 153, 154, 155, 156, 157, 158, 159, 160, 161, 162, 163, 164, 165, 166, 167, 168, 169, 170, 171, 172, 173, 174, 175, 176, 177, 178, 179, 180, 181, 182, 183, 184, 185, 186, 187, 188, 189, 190, 191, 192, 193, 194, 195, 196, 197, 198, 199, 200, 201, 202, 203, 204, 205, 206, 207, 208, 209, 210, 211, 212, 213, 214, 215, 216, 217, 218, 219, 220, 221, 222, 223, 224, 225, 226, 227, 228, 229, 230, 231, 232, 233, 234, 235, 236, 237, 238, 239, 240, 241, 242, 243, 244, 245, 246, 247, 248, 249, 250, 251, 252, 253, 254, 255, 256, 257, 258, 259, 260, 261, 262, 263, 264, 265, 266, 267, 268, 269, 270, 271, 272, 273, 274, 275, 276, 277, 278, 279, 280, 281, 282, 283, 284, 285, 286, 287, 288, 289, 290, 291, 292, 293, 294, 295, 296, 297, 298, 299, 300, 301, 302, 303, 304, 305, 306, 307, 308, 309, 310, 311, 312, 313, 314, 315, 316, 317, 318, 319, 320, 321, 322, 323, 324, 325, 326, 327, 328, 329, 330, 331, 332, 333, 334, 335, 336, 337, 338, 339, 340, 341, 342, 343, 344, 345, 346, 347, 348, 349, 350, 351, 352, 353, 354, 355, 356, 357, 358, 359, 360, 361, 362, 363, 364, 365, 366, 367, 368, 369, 370, 371, 372, 373, 374, 375, 376, 377, 378, 379, 380, 381, 382, 383, 384, 385, 386, 387, 388, 389, 390, 391, 392, 393, 394, 395, 396, 397, 398, 399, 400, 401, 402, 403, 404, 405, 406, 407, 408, 409, 410, 411, 412, 413, 414, 415, 416, 417, 418, 419, 420, 421, 422, 423, 424, 425, 426, 427, 428, 429, 430, 431, 432, 433, 434, 435, 436, 437, 438, 439, 440, 441, 442, 443, 444, 445, 446, 447, 448, 449],
      "AcquisitionTime": ["112013.325000", "112014.815000", "112016.305000", "112017.795000", "112019.285000", "112020.775000", "112022.265000", "112023.755000", "112025.245000", "112026.735000", "112028.225000", "112029.715000", "112031.205000", "112032.695000", "112034.185000", "112035.675000", "112037.165000", "112038.655000", "112040.145000", "112041.635000", "112043.125000", "112044.615000", "112046.105000", "112047.595000", "112049.085000", "112050.575000", "112052.065000", "112053.555000", "112055.045000", "112056.535000", "112058.025000", "112059.515000", "112101.005000", "112102.495000", "112103.985000", "112105.475000", "112106.965000", "112108.455000", "112109.945000", "112111.435000", "112112.925000", "112114.415000", "112115.905000", "112117.395000", "112118.885000", "112120.375000", "112121.865000", "112123.355000", "112124.845000", "112126.335000", "112127.825000", "112129.315000", "112130.805000", "112132.295000", "112133.785000", "112135.275000", "112136.765000", "112138.255000", "112139.745000", "112141.235000", "112142.725000", "112144.215000", "112145.705000", "112147.195000", "112148.685000", "112150.175000", "112151.665000", "112153.155000", "112154.645000", "112156.135000", "112157.625000", "112159.115000", "112200.605000", "112202.095000", "112203.585000", "112205.075000", "112206.565000", "112208.055000", "112209.545000", "112211.035000", "112212.525000", "112214.015000", "112215.505000", "112216.995000", "112218.485000", "112219.975000", "112221.465000", "112222.955000", "112224.445000", "112225.935000", "112227.425000", "112228.915000", "112230.405000", "112231.895000", "112233.385000", "112234.875000", "112236.365000", "112237.855000", "112239.345000", "112240.835000", "112242.325000", "112243.815000", "112245.305000", "112246.795000", "112248.285000", "112249.775000", "112251.265000", "112252.755000", "112254.245000", "112255.735000", "112257.225000", "112258.715000", "112300.205000", "112301.695000", "112303.185000", "112304.675000", "112306.165000", "112307.655000", "112309.145000", "112310.635000", "112312.125000", "112313.615000", "112315.105000", "112316.595000", "112318.085000", "112319.575000", "112321.065000", "112322.555000", "112324.045000", "112325.535000", "112327.025000", "112328.515000", "112330.005000", "112331.495000", "112332.985000", "112334.475000", "112335.965000", "112337.455000", "112338.945000", "112340.435000", "112341.925000", "112343.415000", "112344.905000", "112346.395000", "112347.885000", "112349.375000", "112350.865000", "112352.355000", "112353.845000", "112355.335000", "112356.825000", "112358.315000", "112359.805000", "112401.295000", "112402.785000", "112404.275000", "112405.765000", "112407.255000", "112408.745000", "112410.235000", "112411.725000", "112413.215000", "112414.705000", "112416.195000", "112417.685000", "112419.175000", "112420.665000", "112422.155000", "112423.645000", "112425.135000", "112426.625000", "112428.115000", "112429.605000", "112431.095000", "112432.585000", "112434.075000", "112435.565000", "112437.055000", "112438.545000", "112440.035000", "112441.525000", "112443.015000", "112444.505000", "112445.995000", "112447.485000", "112448.975000", "112450.465000", "112451.955000", "112453.445000", "112454.935000", "112456.425000", "112457.915000", "112459.405000", "112500.895000", "112502.385000", "112503.875000", "112505.365000", "112506.855000", "112508.345000", "112509.835000", "112511.325000", "112512.815000", "112514.305000", "112515.795000", "112517.285000", "112518.775000", "112520.265000", "112521.755000", "112523.245000", "112524.735000", "112526.225000", "112527.715000", "112529.205000", "112530.695000", "112532.185000", "112533.675000", "112535.165000", "112536.655000", "112538.145000", "112539.635000", "112541.125000", "112542.615000", "112544.105000", "112545.595000", "112547.085000", "112548.575000", "112550.065000", "112551.555000", "112553.045000", "112554.535000", "112556.025000", "112557.515000", "112559.005000", "112600.495000", "112601.985000", "112603.475000", "112604.965000", "112606.455000", "112607.945000", "112609.435000", "112610.925000", "112612.415000", "112613.905000", "112615.395000", "112616.885000", "112618.375000", "112619.865000", "112621.355000", "112622.845000", "112624.335000", "112625.825000", "112627.315000", "112628.805000", "112630.295000", "112631.785000", "112633.275000", "112634.765000", "112636.255000", "112637.745000", "112639.235000", "112640.725000", "112642.215000", "112643.705000", "112645.195000", "112646.685000", "112648.175000", "112649.665000", "112651.155000", "112652.645000", "112654.135000", "112655.625000", "112657.115000", "112658.605000", "112700.095000", "112701.585000", "112703.075000", "112704.565000", "112706.055000", "112707.545000", "112709.035000", "112710.525000", "112712.015000", "112713.505000", "112714.995000", "112716.485000", "112717.975000", "112719.465000", "112720.955000", "112722.445000", "112723.935000", "112725.425000", "112726.915000", "112728.405000", "112729.895000", "112731.385000", "112732.875000", "112734.365000", "112735.855000", "112737.345000", "112738.835000", "112740.325000", "112741.815000", "112743.305000", "112744.795000", "112746.285000", "112747.775000", "112749.265000", "112750.755000", "112752.245000", "112753.735000", "112755.225000", "112756.715000", "112758.205000", "112759.695000", "112801.185000", "112802.675000", "112804.165000", "112805.655000", "112807.145000", "112808.635000", "112810.125000", "112811.615000", "112813.105000", "112814.595000", "112816.085000", "112817.575000", "112819.065000", "112820.555000", "112822.045000", "112823.535000", "112825.025000", "112826.515000", "112828.005000", "112829.495000", "112830.985000", "112832.475000", "112833.965000", "112835.455000", "112836.945000", "112838.435000", "112839.925000", "112841.415000", "112842.905000", "112844.395000", "112845.885000", "112847.375000", "112848.865000", "112850.355000", "112851.845000", "112853.335000", "112854.825000", "112856.315000", "112857.805000", "112859.295000", "112900.785000", "112902.275000", "112903.765000", "112905.255000", "112906.745000", "112908.235000", "112909.725000", "112911.215000", "112912.705000", "112914.195000", "112915.685000", "112917.175000", "112918.665000", "112920.155000", "112921.645000", "112923.135000", "112924.625000", "112926.115000", "112927.605000", "112929.095000", "112930.585000", "112932.075000", "112933.565000", "112935.055000", "112936.545000", "112938.035000", "112939.525000", "112941.015000", "112942.505000", "112943.995000", "112945.485000", "112946.975000", "112948.465000", "112949.955000", "112951.445000", "112952.935000", "112954.425000", "112955.915000", "112957.405000", "112958.895000", "113000.385000", "113001.875000", "113003.365000", "113004.855000", "113006.345000", "113007.835000", "113009.325000", "113010.815000", "113012.305000", "113013.795000", "113015.285000", "113016.775000", "113018.265000", "113019.755000", "113021.245000", "113022.735000", "113024.225000", "113025.715000", "113027.205000", "113028.695000", "113030.185000", "113031.675000", "113033.165000", "113034.655000", "113036.145000", "113037.635000", "113039.125000", "113040.615000", "113042.105000", "113043.595000", "113045.085000", "113046.575000", "113048.065000", "113049.555000", "113051.045000", "113052.535000", "113054.025000", "113055.515000", "113057.005000", "113058.495000", "113059.985000", "113101.475000", "113102.965000", "113104.455000", "113105.945000", "113107.435000", "113108.925000", "113110.415000", "113111.905000", "113113.395000", "113114.885000", "113116.375000", "113117.865000", "113119.355000", "113120.845000"],
      "ContentTime": ["112128.779000", "112128.790000", "112128.792000", "112128.795000", "112128.799000", "112128.801000", "112128.804000", "112128.806000", "112128.809000", "112128.811000", "112128.814000", "112128.816000", "112128.819000", "112128.821000", "112128.824000", "112128.826000", "112128.829000", "112128.831000", "112128.834000", "112128.836000", "112148.759000", "112148.762000", "112148.765000", "112148.767000", "112148.801000", "112148.804000", "112148.806000", "112148.809000", "112148.811000", "112148.814000", "112148.816000", "112148.818000", "112148.821000", "112148.823000", "112148.826000", "112148.828000", "112148.831000", "112148.833000", "112148.836000", "112148.838000", "112208.764000", "112208.767000", "112208.769000", "112208.772000", "112208.774000", "112208.777000", "112208.779000", "112208.782000", "112208.784000", "112208.787000", "112208.789000", "112208.792000", "112208.794000", "112208.797000", "112208.799000", "112208.802000", "112208.804000", "112208.807000", "112208.809000", "112208.812000", "112208.814000", "112229.100000", "112229.102000", "112229.105000", "112229.107000", "112229.110000", "112229.112000", "112229.115000", "112229.117000", "112229.120000", "112229.122000", "112229.125000", "112229.127000", "112229.130000", "112229.132000", "112229.135000", "112229.137000", "112229.139000", "112229.142000", "112229.144000", "112229.147000", "112248.873000", "112248.936000", "112248.939000", "112248.942000", "112248.945000", "112248.948000", "112248.950000", "112248.953000", "112248.956000", "112248.959000", "112248.961000", "112248.964000", "112248.966000", "112248.969000", "112248.972000", "112248.974000", "112248.977000", "112248.979000", "112248.982000", "112248.984000", "112328.854000", "112328.857000", "112328.859000", "112328.862000", "112328.864000", "112328.867000", "112328.869000", "112328.872000", "112328.874000", "112328.877000", "112328.879000", "112328.882000", "112328.884000", "112328.887000", "112328.889000", "112328.892000", "112328.894000", "112328.897000", "112328.899000", "112328.902000", "112328.904000", "112328.907000", "112328.909000", "112328.912000", "112328.914000", "112328.917000", "112328.919000", "112328.922000", "112328.924000", "112408.802000", "112408.805000", "112408.807000", "112408.810000", "112408.812000", "112408.815000", "112408.817000", "112408.820000", "112408.822000", "112408.825000", "112408.827000", "112408.830000", "112408.832000", "112408.835000", "112408.837000", "112408.840000", "112408.842000", "112408.845000", "112408.847000", "112408.850000", "112408.852000", "112408.855000", "112408.857000", "112408.860000", "112408.862000", "112408.864000", "112408.867000", "112428.742000", "112428.745000", "112428.747000", "112428.749000", "112428.752000", "112428.754000", "112428.757000", "112428.760000", "112428.762000", "112428.764000", "112428.767000", "112428.829000", "112428.831000", "112508.807000", "112508.810000", "112508.812000", "112508.815000", "112508.817000", "112508.820000", "112508.822000", "112508.825000", "112508.827000", "112508.830000", "112508.832000", "112508.835000", "112508.837000", "112508.840000", "112508.842000", "112508.845000", "112508.848000", "112508.850000", "112508.852000", "112508.855000", "112508.857000", "112508.860000", "112508.862000", "112508.865000", "112508.867000", "112508.870000", "112508.872000", "112548.799000", "112548.802000", "112548.804000", "112548.807000", "112548.809000", "112548.811000", "112548.814000", "112548.816000", "112548.819000", "112548.821000", "112548.824000", "112548.826000", "112548.829000", "112548.831000", "112548.834000", "112548.836000", "112548.839000", "112548.841000", "112548.844000", "112548.846000", "112548.849000", "112548.852000", "112548.854000", "112548.857000", "112548.859000", "112548.862000", "112548.864000", "112628.833000", "112628.836000", "112628.838000", "112628.840000", "112628.843000", "112628.846000", "112628.848000", "112628.850000", "112628.853000", "112628.855000", "112628.858000", "112628.861000", "112628.863000", "112628.866000", "112628.868000", "112628.871000", "112628.873000", "112628.876000", "112628.878000", "112628.880000", "112628.883000", "112628.885000", "112628.888000", "112628.891000", "112628.893000", "112628.895000", "112628.898000", "112708.790000", "112708.793000", "112708.795000", "112708.798000", "112708.800000", "112708.803000", "112708.805000", "112708.808000", "112708.810000", "112708.813000", "112708.815000", "112708.818000", "112708.820000", "112708.823000", "112708.825000", "112708.828000", "112708.830000", "112708.833000", "112708.835000", "112708.838000", "112708.840000", "112708.843000", "112708.845000", "112708.847000", "112708.850000", "112708.852000", "112748.814000", "112748.817000", "112748.819000", "112748.822000", "112748.824000", "112748.827000", "112748.829000", "112748.832000", "112748.834000", "112748.837000", "112748.839000", "112748.842000", "112748.844000", "112748.847000", "112748.849000", "112748.852000", "112748.855000", "112748.857000", "112748.860000", "112748.862000", "112748.865000", "112748.867000", "112748.870000", "112748.873000", "112748.876000", "112748.879000", "112748.881000", "112828.790000", "112828.792000", "112828.795000", "112828.797000", "112828.800000", "112828.802000", "112828.805000", "112828.807000", "112828.810000", "112828.812000", "112828.815000", "112828.817000", "112828.820000", "112828.822000", "112828.825000", "112828.827000", "112828.830000", "112828.832000", "112828.835000", "112828.837000", "112828.840000", "112828.842000", "112828.845000", "112828.847000", "112828.850000", "112828.852000", "112828.855000", "112908.792000", "112908.795000", "112908.797000", "112908.800000", "112908.802000", "112908.805000", "112908.807000", "112908.810000", "112908.812000", "112908.815000", "112908.817000", "112908.820000", "112908.822000", "112908.825000", "112908.827000", "112908.830000", "112908.832000", "112908.835000", "112908.838000", "112908.840000", "112908.843000", "112908.845000", "112908.848000", "112908.850000", "112908.853000", "112908.855000", "112908.858000", "112948.823000", "112948.825000", "112948.828000", "112948.830000", "112948.833000", "112948.835000", "112948.838000", "112948.840000", "112948.843000", "112948.845000", "112948.848000", "112948.850000", "112948.853000", "112948.855000", "112948.858000", "112948.860000", "112948.863000", "112948.865000", "112948.868000", "112948.870000", "112948.873000", "112948.875000", "112948.878000", "112948.880000", "112948.883000", "112948.885000", "112948.888000", "113028.801000", "113028.803000", "113028.806000", "113028.808000", "113028.811000", "113028.813000", "113028.816000", "113028.818000", "113028.821000", "113028.823000", "113028.826000", "113028.828000", "113028.831000", "113028.833000", "113028.836000", "113028.838000", "113028.841000", "113028.843000", "113028.846000", "113028.848000", "113028.851000", "113028.853000", "113028.856000", "113028.858000", "113028.861000", "113028.863000", "113028.866000", "113108.807000", "113108.809000", "113108.812000", "113108.814000", "113108.817000", "113108.819000", "113108.822000", "113108.824000", "113108.827000", "113108.829000", "113108.832000", "113108.834000", "113108.837000", "113108.839000", "113108.842000", "113108.844000", "113108.847000", "113108.849000", "113108.852000", "113108.854000", "113108.857000", "113108.859000", "113108.862000", "113108.864000", "113108.867000", "113108.869000", "113108.872000", "113124.037000", "113124.039000", "113124.042000", "113124.045000", "113124.047000", "113124.050000", "113124.052000", "113124.055000", "113124.057000", "113124.060000"],
