{
  "AcquisitionMatrixPE": 104,
  "AcquisitionNumber": 1,
  "AcquisitionTime": "11:20:13.325000",
  "BandwidthPerPixelPhaseEncode": 17.17,
  "BaseResolution": 104,
  "BodyPartExamined": "BRAIN",
  "CoilCombinationMethod": "Sum of Squares",
  "ConsistencyInfo": "N4_VE11C_LATEST_20160120",
  "ConversionSoftware": "dcm2niix",
  "ConversionSoftwareVersion": "v1.0.20211006",
  "DerivedVendorReportedEchoSpacing": 0.000560011,
  "DeviceSerialNumber": "167006",
  "DwellTime": 2.1e-06,
  "EchoTime": 0.037,
  "EchoTrainLength": 104,
  "EffectiveEchoSpacing": 0.000560011,
  "FlipAngle": 52,
  "HeudiconvVersion": "0.10.0",
  "ImageComments": "Unaliased MB4/PE3/LB",
  "ImageOrientationPatientDICOM": [0.996736, 0.0773384, 0.0231477, -0.062884, 0.92362, -0.378116],
  "ImageOrientationText": "Tra>Cor(-22.1)>Sag(2.9)",
  "ImageType": [
    "ORIGINAL",
    "PRIMARY",
    "M",
    "MB",
    "ND",
    "MOSAIC"
],
  "ImagingFrequency": 123.259,
  "InPlanePhaseEncodingDirectionDICOM": "COL",
  "InstitutionAddress": "Chemin Queen-Mary 4565,Montreal,District,CA,H3W 1W5",
  "InstitutionName": "IUGM",
  "InstitutionalDepartmentName": "Department",
  "MRAcquisitionType": "2D",
  "MagneticFieldStrength": 3,
  "Manufacturer": "Siemens",
  "ManufacturersModelName": "Prisma_fit",
  "MatrixCoilMode": "SENSE",
  "Modality": "MR",
  "MultibandAccelerationFactor": 4,
  "PartialFourier": 1,
  "PatientPosition": "HFS",
  "PercentPhaseFOV": 100,
  "PercentSampling": 100,
  "PhaseEncodingDirection": "j",
  "PhaseEncodingSteps": 104,
  "PhaseResolution": 1,
  "PixelBandwidth": 2290,
  "ProcedureStepDescription": "games^mario",
  "ProtocolName": "func_task-mario_run-02",
  "PulseSequenceDetails": "%CustomerSeq%\\cmrr_mbep2d_bold",
  "ReceiveCoilActiveElements": "HC1-7;NC1,2",
  "ReceiveCoilName": "HeadNeck_64",
  "ReconMatrixPE": 104,
  "RepetitionTime": 1.49,
  "SAR": 0.0381943,
  "ScanOptions": "FS",
  "ScanningSequence": "EP",
  "SequenceName": "epfid2d1_104",
  "SequenceVariant": "SK\\SS",
  "SeriesDescription": "func_task-mario_run-02",
  "SeriesNumber": 13,
  "ShimSetting": [622, -7183, -8847, 625, 48, 20, -48, -1],
  "SliceThickness": 2,
  "SliceTiming": [0, 0.7825, 0.0975, 0.88, 0.195, 0.98, 0.2925, 1.0775, 0.39, 1.175, 0.49, 1.2725, 0.5875, 1.37, 0.685, 0, 0.7825, 0.0975, 0.88, 0.195, 0.98, 0.2925, 1.0775, 0.39, 1.175, 0.49, 1.2725, 0.5875, 1.37, 0.685, 0, 0.7825, 0.0975, 0.88, 0.195, 0.98, 0.2925, 1.0775, 0.39, 1.175, 0.49, 1.2725, 0.5875, 1.37, 0.685, 0, 0.7825, 0.0975, 0.88, 0.195, 0.98, 0.2925, 1.0775, 0.39, 1.175, 0.49, 1.2725, 0.5875, 1.37, 0.685],
  "SoftwareVersions": "syngo MR E11",
  "SpacingBetweenSlices": 2,
  "StationName": "MRC35049",
  "TaskName": "mario",
  "TotalReadoutTime": 0.0576811,
  "TxRefAmp": 257.266,
  "WipMemBlock": "cfc88696-99f8-4765-abd9-ef8474cab635||Sequence: R016 ve11c/master r/e634e98; Dec 19 2017 11:00:25 by eja",
  "dcmmeta_affine": [
    [-1.9934723377227783, -0.1257680058479309, 0.10124505311250687, 109.39177703857422],
    [-0.15467673540115356, 1.8472398519515991, -0.7508528828620911, -50.04135513305664],
    [0.04629531502723694, 0.7562323212623596, 1.8509374856948853, -73.26165008544922],
    [0.0, 0.0, 0.0, 1.0]
],
  "dcmmeta_reorient_transform": [
    [0.0, -1.0, 0.0, 103.0],
    [1.0, 0.0, 0.0, 0.0],
    [0.0, 0.0, 1.0, 0.0],
    [0.0, 0.0, 0.0, 1.0]
],
  "dcmmeta_shape": [104, 104, 60, 449],
  "dcmmeta_slice_dim": 2,
  "dcmmeta_version": 0.6,
  "global": {
    "const": {
      "AcquisitionMatrix": [104, 0, 0, 104],
      "AngioFlag": "N",
      "BitsAllocated": 16,
      "BitsStored": 16,
      "BodyPartExamined": "BRAIN",
      "Columns": 832,
      "EchoNumbers": 1,
      "EchoTime": 37.0,
      "EchoTrainLength": 104,
      "FlipAngle": 52.0,
      "HighBit": 15,
      "ImageOrientationPatient": [0.99673615484714, 0.0773383706935, 0.02314765731169, -0.0628840008414, 0.92361992906136, -0.3781161581828],
      "ImagePositionPatient": [-776.28203776183, -868.92199259087, 263.04735092175],
      "ImageType": [
        "ORIGINAL",
        "PRIMARY",
        "M",
        "MB",
        "ND",
        "MOSAIC"
],
      "ImagedNucleus": "1H",
      "ImagingFrequency": 123.258877,
      "InPlanePhaseEncodingDirection": "COL",
      "MRAcquisitionType": "2D",
      "MagneticFieldStrength": 3.0,
      "Manufacturer": "SIEMENS",
      "ManufacturerModelName": "Prisma_fit",
      "Modality": "MR",
      "NumberOfAverages": 1.0,
      "NumberOfPhaseEncodingSteps": 104,
      "PercentPhaseFieldOfView": 100.0,
      "PercentSampling": 100.0,
      "PerformedProcedureStepStartTime": "101158.713000",
      "PhotometricInterpretation": "MONOCHROME2",
      "PixelBandwidth": 2290.0,
      "PixelRepresentation": 0,
      "PixelSpacing": [2.0, 2.0],
      "ProtocolName": "func_task-mario_run-02",
      "RepetitionTime": 1490.0,
      "Rows": 832,
      "SAR": 0.0381942486987,
      "SamplesPerPixel": 1,
      "ScanOptions": "FS",
      "ScanningSequence": "EP",
      "SequenceName": "epfid2d1_104",
      "SequenceVariant": [
        "SK",
        "SS"
],
      "SeriesDescription": "func_task-mario_run-02",
      "SeriesNumber": 13,
      "SeriesTime": "112128.683000",
      "SliceLocation": -43.476827220714,
      "SliceThickness": 2.0,
      "SmallestImagePixelValue": 0,
      "SoftwareVersions": "syngo MR E11",
      "SpacingBetweenSlices": 2.0000000060483,
      "SpecificCharacterSet": "ISO_IR 100",
      "StudyID": "1",
      "StudyTime": "101158.641000",
      "TransmitCoilName": "Body",
      "VariableFlipAngleFlag": "N",
      "WindowCenterWidthExplanation": "Algo1",
      "dBdt": 0.0},
    "slices": {}
  },
  "time": {
    "samples": {
      "AcquisitionNumber": [1, 2, 3, 4, 5, 6, 7, 8, 9, 10, 11, 12, 13, 14, 15, 16, 17, 18, 19, 20, 21, 22, 23, 24, 25, 26, 27, 28, 29, 30, 31, 32, 33, 34, 35, 36, 37, 38, 39, 40, 41, 42, 43, 44, 45, 46, 47, 48, 49, 50, 51, 52, 53, 54, 55, 56, 57, 58, 59, 60, 61, 62, 63, 64, 65, 66, 67, 68, 69, 70, 71, 72, 73, 74, 75, 76, 77, 78, 79, 80, 81, 82, 83, 84, 85, 86, 87, 88, 89, 90, 91, 92, 93, 94, 95, 96, 97, 98, 99, 100, 101, 102, 103, 104, 105, 106, 107, 108, 109, 110, 111, 112, 113, 114, 115, 116, 117, 118, 119, 120, 121, 122, 123, 124, 125, 126, 127, 128, 129, 130, 131, 132, 133, 134, 135, 136, 137, 138, 139, 140, 141, 142, 143, 144, 145, 146, 147, 148, 149, 150, 151, 152, 153, 154, 155, 156, 157, 158, 159, 160, 161, 162, 163, 164, 165, 166, 167, 168, 169, 170, 171, 172, 173, 174, 175, 176, 177, 178, 179, 180, 181, 182, 183, 184, 185, 186, 187, 188, 189, 190, 191, 192, 193, 194, 195, 196, 197, 198, 199, 200, 201, 202, 203, 204, 205, 206, 207, 208, 209, 210, 211, 212, 213, 214, 215, 216, 217, 218, 219, 220, 221, 222, 223, 224, 225, 226, 227, 228, 229, 230, 231, 232, 233, 234, 235, 236, 237, 238, 239, 240, 241, 242, 243, 244, 245, 246, 247, 248, 249, 250, 251, 252, 253, 254, 255, 256, 257, 258, 259, 260, 261, 262, 263, 264, 265, 266, 267, 268, 269, 270, 271, 272, 273, 274, 275, 276, 277, 278, 279, 280, 281, 282, 283, 284, 285, 286, 287, 288, 289, 290, 291, 292, 293, 294, 295, 296, 297, 298, 299, 300, 301, 302, 303, 304, 305, 306, 307, 308, 309, 310, 311, 312, 313, 314, 315, 316, 317, 318, 319, 320, 321, 322, 323, 324, 325, 326, 327, 328, 329, 330, 331, 332, 333, 334, 335, 336, 337, 338, 339, 340, 341, 342, 343, 344, 345, 346, 347, 348, 349, 350, 351, 352, 353, 354, 355, 356, 357, 358, 359, 360, 361, 362, 363, 364, 365, 366, 367, 368, 369, 370, 371, 372, 373, 374, 375, 376, 377, 378, 379, 380, 381, 382, 383, 384, 385, 386, 387, 388, 389, 390, 391, 392, 393, 394, 395, 396, 397, 398, 399, 400, 401, 402, 403, 404, 405, 406, 407, 408, 409, 410, 411, 412, 413, 414, 415, 416, 417, 418, 419, 420, 421, 422, 423, 424, 425, 426, 427, 428, 429, 430, 431, 432, 433, 434, 435, 436, 437, 438, 439, 440, 441, 442, 443, 444, 445, 446, 447, 448, 449],
      "AcquisitionTime": ["112013.325000", "112014.815000", "112016.305000", "112017.795000", "112019.285000", "112020.775000", "112022.265000", "112023.755000", "112025.245000", "112026.735000", "112028.225000", "112029.715000", "112031.205000", "112032.695000", "112034.185000", "112035.675000", "112037.165000", "112038.655000", "112040.145000", "112041.635000", "112043.125000", "112044.615000", "112046.105000", "112047.595000", "112049.085000", "112050.575000", "112052.065000", "112053.555000", "112055.045000", "112056.535000", "112058.025000", "112059.515000", "112101.005000", "112102.495000", "112103.985000", "112105.475000", "112106.965000", "112108.455000", "112109.945000", "112111.435000", "112112.925000", "112114.415000", "112115.905000", "112117.395000", "112118.885000", "112120.375000", "112121.865000", "112123.355000", "112124.845000", "112126.335000", "112127.825000", "112129.315000", "112130.805000", "112132.295000", "112133.785000", "112135.275000", "112136.765000", "112138.255000", "112139.745000", "112141.235000", "112142.725000", "112144.215000", "112145.705000", "112147.195000", "112148.685000", "112150.175000", "112151.665000", "112153.155000", "112154.645000", "112156.135000", "112157.625000", "112159.115000", "112200.605000", "112202.095000", "112203.585000", "112205.075000", "112206.565000", "112208.055000", "112209.545000", "112211.035000", "112212.525000", "112214.015000", "112215.505000", "112216.995000", "112218.485000", "112219.975000", "112221.465000", "112222.955000", "112224.445000", "112225.935000", "112227.425000", "112228.915000", "112230.405000", "112231.895000", "112233.385000", "112234.875000", "112236.365000", "112237.855000", "112239.345000", "112240.835000", "112242.325000", "112243.815000", "112245.305000", "112246.795000", "112248.285000", "112249.775000", "112251.265000", "112252.755000", "112254.245000", "112255.735000", "112257.225000", "112258.715000", "112300.205000", "112301.695000", "112303.185000", "112304.675000", "112306.165000", "112307.655000", "112309.145000", "112310.635000", "112312.125000", "112313.615000", "112315.105000", "112316.595000", "112318.085000", "112319.575000", "112321.065000", "112322.555000", "112324.045000", "112325.535000", "112327.025000", "112328.515000", "112330.005000", "112331.495000", "112332.985000", "112334.475000", "112335.965000", "112337.455000", "112338.945000", "112340.435000", "112341.925000", "112343.415000", "112344.905000", "112346.395000", "112347.885000", "112349.375000", "112350.865000", "112352.355000", "112353.845000", "112355.335000", "112356.825000", "112358.315000", "112359.805000", "112401.295000", "112402.785000", "112404.275000", "112405.765000", "112407.255000", "112408.745000", "112410.235000", "112411.725000", "112413.215000", "112414.705000", "112416.195000", "112417.685000", "112419.175000", "112420.665000", "112422.155000", "112423.645000", "112425.135000", "112426.625000", "112428.115000", "112429.605000", "112431.095000", "112432.585000", "112434.075000", "112435.565000", "112437.055000", "112438.545000", "112440.035000", "112441.525000", "112443.015000", "112444.505000", "112445.995000", "112447.485000", "112448.975000", "112450.465000", "112451.955000", "112453.445000", "112454.935000", "112456.425000", "112457.915000", "112459.405000", "112500.895000", "112502.385000", "112503.875000", "112505.365000", "112506.855000", "112508.345000", "112509.835000", "112511.325000", "112512.815000", "112514.305000", "112515.795000", "112517.285000", "112518.775000", "112520.265000", "112521.755000", "112523.245000", "112524.735000", "112526.225000", "112527.715000", "112529.205000", "112530.695000", "112532.185000", "112533.675000", "112535.165000", "112536.655000", "112538.145000", "112539.635000", "112541.125000", "112542.615000", "112544.105000", "112545.595000", "112547.085000", "112548.575000", "112550.065000", "112551.555000", "112553.045000", "112554.535000", "112556.025000", "112557.515000", "112559.005000", "112600.495000", "112601.985000", "112603.475000", "112604.965000", "112606.455000", "112607.945000", "112609.435000", "112610.925000", "112612.415000", "112613.905000", "112615.395000", "112616.885000", "112618.375000", "112619.865000", "112621.355000", "112622.845000", "112624.335000", "112625.825000", "112627.315000", "112628.805000", "112630.295000", "112631.785000", "112633.275000", "112634.765000", "112636.255000", "112637.745000", "112639.235000", "112640.725000", "112642.215000", "112643.705000", "112645.195000", "112646.685000", "112648.175000", "112649.665000", "112651.155000", "112652.645000", "112654.135000", "112655.625000", "112657.115000", "112658.605000", "112700.095000", "112701.585000", "112703.075000", "112704.565000", "112706.055000", "112707.545000", "112709.035000", "112710.525000", "112712.015000", "112713.505000", "112714.995000", "112716.485000", "112717.975000", "112719.465000", "112720.955000", "112722.445000", "112723.935000", "112725.425000", "112726.915000", "112728.405000", "112729.895000", "112731.385000", "112732.875000", "112734.365000", "112735.855000", "112737.345000", "112738.835000", "112740.325000", "112741.815000", "112743.305000", "112744.795000", "112746.285000", "112747.775000", "112749.265000", "112750.755000", "112752.245000", "112753.735000", "112755.225000", "112756.715000", "112758.205000", "112759.695000", "112801.185000", "112802.675000", "112804.165000", "112805.655000", "112807.145000", "112808.635000", "112810.125000", "112811.615000", "112813.105000", "112814.595000", "112816.085000", "112817.575000", "112819.065000", "112820.555000", "112822.045000", "112823.535000", "112825.025000", "112826.515000", "112828.005000", "112829.495000", "112830.985000", "112832.475000", "112833.965000", "112835.455000", "112836.945000", "112838.435000", "112839.925000", "112841.415000", "112842.905000", "112844.395000", "112845.885000", "112847.375000", "112848.865000", "112850.355000", "112851.845000", "112853.335000", "112854.825000", "112856.315000", "112857.805000", "112859.295000", "112900.785000", "112902.275000", "112903.765000", "112905.255000", "112906.745000", "112908.235000", "112909.725000", "112911.215000", "112912.705000", "112914.195000", "112915.685000", "112917.175000", "112918.665000", "112920.155000", "112921.645000", "112923.135000", "112924.625000", "112926.115000", "112927.605000", "112929.095000", "112930.585000", "112932.075000", "112933.565000", "112935.055000", "112936.545000", "112938.035000", "112939.525000", "112941.015000", "112942.505000", "112943.995000", "112945.485000", "112946.975000", "112948.465000", "112949.955000", "112951.445000", "112952.935000", "112954.425000", "112955.915000", "112957.405000", "112958.895000", "113000.385000", "113001.875000", "113003.365000", "113004.855000", "113006.345000", "113007.835000", "113009.325000", "113010.815000", "113012.305000", "113013.795000", "113015.285000", "113016.775000", "113018.265000", "113019.755000", "113021.245000", "113022.735000", "113024.225000", "113025.715000", "113027.205000", "113028.695000", "113030.185000", "113031.675000", "113033.165000", "113034.655000", "113036.145000", "113037.635000", "113039.125000", "113040.615000", "113042.105000", "113043.595000", "113045.085000", "113046.575000", "113048.065000", "113049.555000", "113051.045000", "113052.535000", "113054.025000", "113055.515000", "113057.005000", "113058.495000", "113059.985000", "113101.475000", "113102.965000", "113104.455000", "113105.945000", "113107.435000", "113108.925000", "113110.415000", "113111.905000", "113113.395000", "113114.885000", "113116.375000", "113117.865000", "113119.355000", "113120.845000"],
      "ContentTime": ["112128.686000", "112128.689000", "112128.693000", "112128.696000", "112128.700000", "112128.703000", "112128.706000", "112128.710000", "112128.713000", "112128.716000", "112128.719000", "112128.723000", "112128.726000", "112128.729000", "112128.733000", "112128.736000", "112128.739000", "112128.742000", "112128.746000", "112128.749000", "112148.649000", "112148.653000", "112148.656000", "112148.659000", "112148.662000", "112148.666000", "112148.669000", "112148.672000", "112148.676000", "112148.679000", "112148.682000", "112148.686000", "112148.689000", "112148.692000", "112148.695000", "112148.699000", "112148.702000", "112148.705000", "112148.708000", "112148.712000", "112208.649000", "112208.653000", "112208.656000", "112208.666000", "112208.670000", "112208.673000", "112208.676000", "112208.680000", "112208.683000", "112208.686000", "112208.689000", "112208.693000", "112208.696000", "112208.699000", "112208.702000", "112208.706000", "112208.709000", "112208.712000", "112208.716000", "112208.719000", "112208.722000", "112228.649000", "112228.653000", "112228.656000", "112228.659000", "112228.662000", "112228.666000", "112228.669000", "112228.672000", "112228.676000", "112228.679000", "112228.682000", "112228.686000", "112228.689000", "112228.692000", "112228.695000", "112228.699000", "112228.702000", "112228.705000", "112228.709000", "112228.712000", "112248.649000", "112248.653000", "112248.670000", "112248.674000", "112248.677000", "112248.680000", "112248.683000", "112248.687000", "112248.690000", "112248.693000", "112248.697000", "112248.700000", "112248.703000", "112248.706000", "112248.710000", "112248.713000", "112248.716000", "112248.719000", "112248.723000", "112248.726000", "112328.649000", "112328.653000", "112328.656000", "112328.659000", "112328.663000", "112328.666000", "112328.669000", "112328.673000", "112328.676000", "112328.679000", "112328.683000", "112328.686000", "112328.689000", "112328.693000", "112328.696000", "112328.699000", "112328.702000", "112328.706000", "112328.709000", "112328.712000", "112328.716000", "112328.719000", "112328.722000", "112328.725000", "112328.729000", "112328.732000", "112328.735000", "112328.739000", "112328.742000", "112408.649000", "112408.653000", "112408.656000", "112408.660000", "112408.663000", "112408.666000", "112408.670000", "112408.673000", "112408.676000", "112408.679000", "112408.683000", "112408.686000", "112408.689000", "112408.693000", "112408.696000", "112408.699000", "112408.702000", "112408.706000", "112408.709000", "112408.712000", "112408.716000", "112408.719000", "112408.722000", "112408.726000", "112408.729000", "112408.732000", "112408.735000", "112428.650000", "112428.659000", "112428.662000", "112428.666000", "112428.669000", "112428.672000", "112428.676000", "112428.679000", "112428.682000", "112428.686000", "112428.689000", "112428.692000", "112428.696000", "112508.649000", "112508.653000", "112508.656000", "112508.660000", "112508.663000", "112508.666000", "112508.670000", "112508.673000", "112508.676000", "112508.680000", "112508.683000", "112508.686000", "112508.690000", "112508.693000", "112508.696000", "112508.700000", "112508.703000", "112508.706000", "112508.710000", "112508.713000", "112508.726000", "112508.729000", "112508.732000", "112508.736000", "112508.739000", "112508.742000", "112508.745000", "112548.649000", "112548.653000", "112548.656000", "112548.659000", "112548.663000", "112548.666000", "112548.669000", "112548.673000", "112548.676000", "112548.679000", "112548.683000", "112548.686000", "112548.689000", "112548.693000", "112548.696000", "112548.699000", "112548.702000", "112548.706000", "112548.709000", "112548.713000", "112548.716000", "112548.719000", "112548.722000", "112548.726000", "112548.729000", "112548.732000", "112548.736000", "112628.649000", "112628.653000", "112628.656000", "112628.660000", "112628.663000", "112628.666000", "112628.670000", "112628.673000", "112628.676000", "112628.680000", "112628.683000", "112628.686000", "112628.689000", "112628.693000", "112628.696000", "112628.699000", "112628.703000", "112628.706000", "112628.709000", "112628.713000", "112628.716000", "112628.719000", "112628.723000", "112628.726000", "112628.729000", "112628.733000", "112628.736000", "112708.650000", "112708.654000", "112708.658000", "112708.661000", "112708.665000", "112708.669000", "112708.672000", "112708.675000", "112708.679000", "112708.682000", "112708.686000", "112708.689000", "112708.692000", "112708.695000", "112708.699000", "112708.702000", "112708.705000", "112708.709000", "112708.712000", "112708.715000", "112708.719000", "112708.722000", "112708.725000", "112708.728000", "112708.732000", "112708.735000", "112748.648000", "112748.652000", "112748.655000", "112748.659000", "112748.662000", "112748.665000", "112748.669000", "112748.672000", "112748.675000", "112748.679000", "112748.682000", "112748.685000", "112748.688000", "112748.692000", "112748.695000", "112748.698000", "112748.702000", "112748.705000", "112748.708000", "112748.712000", "112748.715000", "112748.718000", "112748.721000", "112748.725000", "112748.728000", "112748.731000", "112748.735000", "112828.649000", "112828.662000", "112828.665000", "112828.669000", "112828.672000", "112828.675000", "112828.678000", "112828.682000", "112828.685000", "112828.688000", "112828.692000", "112828.695000", "112828.698000", "112828.702000", "112828.705000", "112828.708000", "112828.712000", "112828.715000", "112828.718000", "112828.721000", "112828.725000", "112828.728000", "112828.731000", "112828.735000", "112828.738000", "112828.741000", "112828.745000", "112908.649000", "112908.653000", "112908.656000", "112908.660000", "112908.663000", "112908.666000", "112908.670000", "112908.673000", "112908.676000", "112908.680000", "112908.683000", "112908.686000", "112908.690000", "112908.693000", "112908.696000", "112908.700000", "112908.703000", "112908.706000", "112908.709000", "112908.713000", "112908.716000", "112908.719000", "112908.723000", "112908.726000", "112908.729000", "112908.732000", "112908.736000", "112948.649000", "112948.653000", "112948.656000", "112948.660000", "112948.663000", "112948.666000", "112948.679000", "112948.682000", "112948.685000", "112948.689000", "112948.692000", "112948.697000", "112948.700000", "112948.704000", "112948.707000", "112948.710000", "112948.714000", "112948.717000", "112948.720000", "112948.723000", "112948.727000", "112948.730000", "112948.733000", "112948.737000", "112948.740000", "112948.743000", "112948.747000", "113028.649000", "113028.653000", "113028.656000", "113028.660000", "113028.663000", "113028.666000", "113028.670000", "113028.673000", "113028.676000", "113028.680000", "113028.683000", "113028.686000", "113028.689000", "113028.693000", "113028.696000", "113028.699000", "113028.703000", "113028.706000", "113028.709000", "113028.712000", "113028.716000", "113028.719000", "113028.722000", "113028.726000", "113028.729000", "113028.732000", "113028.736000", "113108.649000", "113108.653000", "113108.656000", "113108.660000", "113108.663000", "113108.666000", "113108.670000", "113108.673000", "113108.676000", "113108.680000", "113108.683000", "113108.686000", "113108.689000", "113108.693000", "113108.696000", "113108.699000", "113108.703000", "113108.706000", "113108.709000", "113108.713000", "113108.716000", "113108.719000", "113108.722000", "113108.726000", "113108.729000", "113108.732000", "113108.736000", "113123.944000", "113123.948000", "113123.951000", "113123.954000", "113123.966000", "113123.969000", "113123.973000", "113123.976000", "113123.979000", "113123.982000"],
