{
  "AcquisitionMatrixPE": 104,
  "AcquisitionNumber": 1,
  "AcquisitionTime": "11:53:33.277500",
  "BandwidthPerPixelPhaseEncode": 17.17,
  "BaseResolution": 104,
  "BodyPartExamined": "BRAIN",
  "CoilCombinationMethod": "Sum of Squares",
  "ConsistencyInfo": "N4_VE11C_LATEST_20160120",
  "ConversionSoftware": "dcm2niix",
  "ConversionSoftwareVersion": "v1.0.20211006",
  "DerivedVendorReportedEchoSpacing": 0.000560011,
  "DeviceSerialNumber": "167006",
  "DwellTime": 2.1e-06,
  "EchoTime": 0.037,
  "EchoTime1": 0.037,
  "EchoTime2": 0.001,
  "EchoTrainLength": 104,
  "EffectiveEchoSpacing": 0.000560011,
  "FlipAngle": 52,
  "HeudiconvVersion": "0.10.0",
  "ImageComments": "Unaliased MB4/PE3/LB",
  "ImageOrientationPatientDICOM": [0.996736, 0.0773384, 0.0231477, -0.062884, 0.92362, -0.378116],
  "ImageOrientationText": "Tra>Cor(-22.1)>Sag(2.9)",
  "ImageType": [
    "ORIGINAL",
    "PRIMARY",
    "P",
    "MB",
    "ND",
    "MOSAIC",
    "PHASE"
],
  "ImagingFrequency": 123.259,
  "InPlanePhaseEncodingDirectionDICOM": "COL",
  "InstitutionAddress": "Chemin Queen-Mary 4565,Montreal,District,CA,H3W 1W5",
  "InstitutionName": "IUGM",
  "InstitutionalDepartmentName": "Department",
  "MRAcquisitionType": "2D",
  "MagneticFieldStrength": 3,
  "Manufacturer": "Siemens",
  "ManufacturersModelName": "Prisma_fit",
  "MatrixCoilMode": "SENSE",
  "Modality": "MR",
  "MultibandAccelerationFactor": 4,
  "PartialFourier": 1,
  "PatientPosition": "HFS",
  "PercentPhaseFOV": 100,
  "PercentSampling": 100,
  "PhaseEncodingDirection": "j",
  "PhaseEncodingSteps": 104,
  "PhaseResolution": 1,
  "PixelBandwidth": 2290,
  "ProcedureStepDescription": "games^mario",
  "ProtocolName": "func_task-mario_run-04",
  "PulseSequenceDetails": "%CustomerSeq%\\cmrr_mbep2d_bold",
  "ReceiveCoilActiveElements": "HC1-7;NC1,2",
  "ReceiveCoilName": "HeadNeck_64",
  "ReconMatrixPE": 104,
  "RepetitionTime": 1.49,
  "SAR": 0.0381943,
  "ScanOptions": "FS",
  "ScanningSequence": "EP",
  "SequenceName": "epfid2d1_104",
  "SequenceVariant": "SK\\SS",
  "SeriesDescription": "func_task-mario_run-04",
  "SeriesNumber": 20,
  "ShimSetting": [622, -7183, -8847, 625, 48, 20, -48, -1],
  "SliceThickness": 2,
  "SliceTiming": [0, 0.7825, 0.0975, 0.8825, 0.195, 0.98, 0.2925, 1.0775, 0.3925, 1.175, 0.49, 1.2725, 0.5875, 1.3725, 0.685, 0, 0.7825, 0.0975, 0.8825, 0.195, 0.98, 0.2925, 1.0775, 0.3925, 1.175, 0.49, 1.2725, 0.5875, 1.3725, 0.685, 0, 0.7825, 0.0975, 0.8825, 0.195, 0.98, 0.2925, 1.0775, 0.3925, 1.175, 0.49, 1.2725, 0.5875, 1.3725, 0.685, 0, 0.7825, 0.0975, 0.8825, 0.195, 0.98, 0.2925, 1.0775, 0.3925, 1.175, 0.49, 1.2725, 0.5875, 1.3725, 0.685],
  "SoftwareVersions": "syngo MR E11",
  "SpacingBetweenSlices": 2,
  "StationName": "MRC35049",
  "TaskName": "mario",
  "TotalReadoutTime": 0.0576811,
  "TxRefAmp": 257.266,
  "WipMemBlock": "673e9d54-9953-4b3b-bc6a-b4f89a1689f5||Sequence: R016 ve11c/master r/e634e98; Dec 19 2017 11:00:25 by eja",
  "dcmmeta_affine": [
    [-1.9934723377227783, -0.1257680058479309, 0.10124505311250687, 109.39177703857422],
    [-0.15467673540115356, 1.8472398519515991, -0.7508528828620911, -50.04135513305664],
    [0.04629531502723694, 0.7562323212623596, 1.8509374856948853, -73.26165008544922],
    [0.0, 0.0, 0.0, 1.0]
],
  "dcmmeta_reorient_transform": [
    [0.0, -1.0, 0.0, 103.0],
    [1.0, 0.0, 0.0, 0.0],
    [0.0, 0.0, 1.0, 0.0],
    [0.0, 0.0, 0.0, 1.0]
],
  "dcmmeta_shape": [104, 104, 60, 435],
  "dcmmeta_slice_dim": 2,
  "dcmmeta_version": 0.6,
  "global": {
    "const": {
      "AcquisitionMatrix": [104, 0, 0, 104],
      "AngioFlag": "N",
      "BitsAllocated": 16,
      "BitsStored": 16,
      "BodyPartExamined": "BRAIN",
      "Columns": 832,
      "EchoNumbers": 1,
      "EchoTime": 37.0,
      "EchoTrainLength": 104,
      "FlipAngle": 52.0,
      "HighBit": 15,
      "ImageOrientationPatient": [0.99673615484714, 0.0773383706935, 0.02314765731169, -0.0628840008414, 0.92361992906136, -0.3781161581828],
      "ImagePositionPatient": [-776.28203776183, -868.92199259087, 263.04735092175],
      "ImageType": [
        "ORIGINAL",
        "PRIMARY",
        "P",
        "MB",
        "ND",
        "MOSAIC"
],
      "ImagedNucleus": "1H",
      "ImagingFrequency": 123.258886,
      "InPlanePhaseEncodingDirection": "COL",
      "LargestImagePixelValue": 4095,
      "MRAcquisitionType": "2D",
      "MagneticFieldStrength": 3.0,
      "Manufacturer": "SIEMENS",
      "ManufacturerModelName": "Prisma_fit",
      "Modality": "MR",
      "NumberOfAverages": 1.0,
      "NumberOfPhaseEncodingSteps": 104,
      "PercentPhaseFieldOfView": 100.0,
      "PercentSampling": 100.0,
      "PerformedProcedureStepStartTime": "101158.713000",
      "PhotometricInterpretation": "MONOCHROME2",
      "PixelBandwidth": 2290.0,
      "PixelRepresentation": 0,
      "PixelSpacing": [2.0, 2.0],
      "ProtocolName": "func_task-mario_run-04",
      "RepetitionTime": 1490.0,
      "RescaleIntercept": -4096.0,
      "RescaleSlope": 2.0,
      "RescaleType": "US",
      "Rows": 832,
      "SAR": 0.0381942486987,
      "SamplesPerPixel": 1,
      "ScanOptions": "FS",
      "ScanningSequence": "EP",
      "SequenceName": "epfid2d1_104",
      "SequenceVariant": [
        "SK",
        "SS"
],
      "SeriesDescription": "func_task-mario_run-04",
      "SeriesNumber": 20,
      "SeriesTime": "115435.733000",
      "SliceLocation": -43.476827220714,
      "SliceThickness": 2.0,
      "SmallestImagePixelValue": 0,
      "SoftwareVersions": "syngo MR E11",
      "SpacingBetweenSlices": 2.0000000060483,
      "SpecificCharacterSet": "ISO_IR 100",
      "StudyID": "1",
      "StudyTime": "101158.641000",
      "TransmitCoilName": "Body",
      "VariableFlipAngleFlag": "N",
      "WindowCenterWidthExplanation": "Algo1",
      "dBdt": 0.0},
    "slices": {}
  },
  "time": {
    "samples": {
      "AcquisitionNumber": [1, 2, 3, 4, 5, 6, 7, 8, 9, 10, 11, 12, 13, 14, 15, 16, 17, 18, 19, 20, 21, 22, 23, 24, 25, 26, 27, 28, 29, 30, 31, 32, 33, 34, 35, 36, 37, 38, 39, 40, 41, 42, 43, 44, 45, 46, 47, 48, 49, 50, 51, 52, 53, 54, 55, 56, 57, 58, 59, 60, 61, 62, 63, 64, 65, 66, 67, 68, 69, 70, 71, 72, 73, 74, 75, 76, 77, 78, 79, 80, 81, 82, 83, 84, 85, 86, 87, 88, 89, 90, 91, 92, 93, 94, 95, 96, 97, 98, 99, 100, 101, 102, 103, 104, 105, 106, 107, 108, 109, 110, 111, 112, 113, 114, 115, 116, 117, 118, 119, 120, 121, 122, 123, 124, 125, 126, 127, 128, 129, 130, 131, 132, 133, 134, 135, 136, 137, 138, 139, 140, 141, 142, 143, 144, 145, 146, 147, 148, 149, 150, 151, 152, 153, 154, 155, 156, 157, 158, 159, 160, 161, 162, 163, 164, 165, 166, 167, 168, 169, 170, 171, 172, 173, 174, 175, 176, 177, 178, 179, 180, 181, 182, 183, 184, 185, 186, 187, 188, 189, 190, 191, 192, 193, 194, 195, 196, 197, 198, 199, 200, 201, 202, 203, 204, 205, 206, 207, 208, 209, 210, 211, 212, 213, 214, 215, 216, 217, 218, 219, 220, 221, 222, 223, 224, 225, 226, 227, 228, 229, 230, 231, 232, 233, 234, 235, 236, 237, 238, 239, 240, 241, 242, 243, 244, 245, 246, 247, 248, 249, 250, 251, 252, 253, 254, 255, 256, 257, 258, 259, 260, 261, 262, 263, 264, 265, 266, 267, 268, 269, 270, 271, 272, 273, 274, 275, 276, 277, 278, 279, 280, 281, 282, 283, 284, 285, 286, 287, 288, 289, 290, 291, 292, 293, 294, 295, 296, 297, 298, 299, 300, 301, 302, 303, 304, 305, 306, 307, 308, 309, 310, 311, 312, 313, 314, 315, 316, 317, 318, 319, 320, 321, 322, 323, 324, 325, 326, 327, 328, 329, 330, 331, 332, 333, 334, 335, 336, 337, 338, 339, 340, 341, 342, 343, 344, 345, 346, 347, 348, 349, 350, 351, 352, 353, 354, 355, 356, 357, 358, 359, 360, 361, 362, 363, 364, 365, 366, 367, 368, 369, 370, 371, 372, 373, 374, 375, 376, 377, 378, 379, 380, 381, 382, 383, 384, 385, 386, 387, 388, 389, 390, 391, 392, 393, 394, 395, 396, 397, 398, 399, 400, 401, 402, 403, 404, 405, 406, 407, 408, 409, 410, 411, 412, 413, 414, 415, 416, 417, 418, 419, 420, 421, 422, 423, 424, 425, 426, 427, 428, 429, 430, 431, 432, 433, 434, 435],
      "AcquisitionTime": ["115333.277500", "115334.767500", "115336.257500", "115337.747500", "115339.237500", "115340.727500", "115342.217500", "115343.707500", "115345.197500", "115346.687500", "115348.177500", "115349.667500", "115351.157500", "115352.647500", "115354.137500", "115355.627500", "115357.117500", "115358.607500", "115400.097500", "115401.587500", "115403.077500", "115404.567500", "115406.057500", "115407.547500", "115409.037500", "115410.527500", "115412.017500", "115413.507500", "115414.997500", "115416.487500", "115417.977500", "115419.467500", "115420.957500", "115422.447500", "115423.937500", "115425.427500", "115426.917500", "115428.407500", "115429.897500", "115431.387500", "115432.877500", "115434.367500", "115435.857500", "115437.347500", "115438.837500", "115440.327500", "115441.817500", "115443.307500", "115444.797500", "115446.287500", "115447.777500", "115449.267500", "115450.757500", "115452.247500", "115453.737500", "115455.227500", "115456.717500", "115458.207500", "115459.697500", "115501.187500", "115502.677500", "115504.167500", "115505.657500", "115507.147500", "115508.637500", "115510.127500", "115511.617500", "115513.107500", "115514.597500", "115516.087500", "115517.577500", "115519.067500", "115520.557500", "115522.047500", "115523.537500", "115525.027500", "115526.517500", "115528.007500", "115529.497500", "115530.987500", "115532.477500", "115533.967500", "115535.457500", "115536.947500", "115538.437500", "115539.927500", "115541.417500", "115542.907500", "115544.397500", "115545.887500", "115547.377500", "115548.867500", "115550.357500", "115551.847500", "115553.337500", "115554.827500", "115556.317500", "115557.807500", "115559.297500", "115600.787500", "115602.277500", "115603.767500", "115605.257500", "115606.747500", "115608.237500", "115609.727500", "115611.217500", "115612.707500", "115614.197500", "115615.687500", "115617.177500", "115618.667500", "115620.157500", "115621.647500", "115623.137500", "115624.627500", "115626.117500", "115627.607500", "115629.097500", "115630.587500", "115632.077500", "115633.567500", "115635.057500", "115636.547500", "115638.037500", "115639.527500", "115641.017500", "115642.507500", "115643.997500", "115645.487500", "115646.977500", "115648.467500", "115649.957500", "115651.447500", "115652.937500", "115654.427500", "115655.917500", "115657.407500", "115658.897500", "115700.387500", "115701.877500", "115703.367500", "115704.857500", "115706.347500", "115707.837500", "115709.327500", "115710.817500", "115712.307500", "115713.797500", "115715.287500", "115716.777500", "115718.267500", "115719.757500", "115721.247500", "115722.737500", "115724.227500", "115725.717500", "115727.207500", "115728.697500", "115730.187500", "115731.677500", "115733.167500", "115734.657500", "115736.147500", "115737.637500", "115739.127500", "115740.617500", "115742.107500", "115743.597500", "115745.087500", "115746.577500", "115748.067500", "115749.557500", "115751.047500", "115752.537500", "115754.027500", "115755.517500", "115757.007500", "115758.497500", "115759.987500", "115801.477500", "115802.967500", "115804.457500", "115805.947500", "115807.437500", "115808.927500", "115810.417500", "115811.907500", "115813.397500", "115814.887500", "115816.377500", "115817.867500", "115819.357500", "115820.847500", "115822.337500", "115823.827500", "115825.317500", "115826.807500", "115828.297500", "115829.787500", "115831.277500", "115832.767500", "115834.257500", "115835.747500", "115837.237500", "115838.727500", "115840.217500", "115841.707500", "115843.197500", "115844.687500", "115846.177500", "115847.667500", "115849.157500", "115850.647500", "115852.137500", "115853.627500", "115855.117500", "115856.607500", "115858.097500", "115859.587500", "115901.077500", "115902.567500", "115904.057500", "115905.547500", "115907.037500", "115908.527500", "115910.017500", "115911.507500", "115912.997500", "115914.487500", "115915.977500", "115917.467500", "115918.957500", "115920.447500", "115921.937500", "115923.427500", "115924.917500", "115926.407500", "115927.897500", "115929.387500", "115930.877500", "115932.367500", "115933.857500", "115935.347500", "115936.837500", "115938.327500", "115939.817500", "115941.307500", "115942.797500", "115944.287500", "115945.777500", "115947.267500", "115948.757500", "115950.247500", "115951.737500", "115953.227500", "115954.717500", "115956.207500", "115957.697500", "115959.187500", "120000.677500", "120002.167500", "120003.657500", "120005.147500", "120006.637500", "120008.127500", "120009.617500", "120011.107500", "120012.597500", "120014.087500", "120015.577500", "120017.067500", "120018.557500", "120020.047500", "120021.537500", "120023.027500", "120024.517500", "120026.007500", "120027.497500", "120028.987500", "120030.477500", "120031.967500", "120033.457500", "120034.947500", "120036.437500", "120037.927500", "120039.417500", "120040.907500", "120042.397500", "120043.887500", "120045.377500", "120046.867500", "120048.357500", "120049.847500", "120051.337500", "120052.827500", "120054.317500", "120055.807500", "120057.297500", "120058.787500", "120100.277500", "120101.767500", "120103.257500", "120104.747500", "120106.237500", "120107.727500", "120109.217500", "120110.707500", "120112.197500", "120113.687500", "120115.177500", "120116.667500", "120118.157500", "120119.647500", "120121.137500", "120122.627500", "120124.117500", "120125.607500", "120127.097500", "120128.587500", "120130.077500", "120131.567500", "120133.057500", "120134.547500", "120136.037500", "120137.527500", "120139.017500", "120140.507500", "120141.997500", "120143.487500", "120144.977500", "120146.467500", "120147.957500", "120149.447500", "120150.937500", "120152.427500", "120153.917500", "120155.407500", "120156.897500", "120158.387500", "120159.877500", "120201.367500", "120202.857500", "120204.347500", "120205.837500", "120207.327500", "120208.817500", "120210.307500", "120211.797500", "120213.287500", "120214.777500", "120216.267500", "120217.757500", "120219.247500", "120220.737500", "120222.227500", "120223.717500", "120225.207500", "120226.697500", "120228.187500", "120229.677500", "120231.167500", "120232.657500", "120234.147500", "120235.637500", "120237.127500", "120238.617500", "120240.107500", "120241.597500", "120243.087500", "120244.577500", "120246.067500", "120247.557500", "120249.047500", "120250.537500", "120252.027500", "120253.517500", "120255.007500", "120256.497500", "120257.987500", "120259.477500", "120300.967500", "120302.457500", "120303.947500", "120305.437500", "120306.927500", "120308.417500", "120309.907500", "120311.397500", "120312.887500", "120314.377500", "120315.867500", "120317.357500", "120318.847500", "120320.337500", "120321.827500", "120323.317500", "120324.807500", "120326.297500", "120327.787500", "120329.277500", "120330.767500", "120332.257500", "120333.747500", "120335.237500", "120336.727500", "120338.217500", "120339.707500", "120341.197500", "120342.687500", "120344.177500", "120345.667500", "120347.157500", "120348.647500", "120350.137500", "120351.627500", "120353.117500", "120354.607500", "120356.097500", "120357.587500", "120359.077500", "120400.567500", "120402.057500", "120403.547500", "120405.037500", "120406.527500", "120408.017500", "120409.507500", "120410.997500", "120412.487500", "120413.977500", "120415.467500", "120416.957500", "120418.447500", "120419.937500"],
      "ContentTime": ["115435.735000", "115435.738000", "115435.741000", "115435.743000", "115435.746000", "115435.748000", "115435.751000", "115455.763000", "115455.765000", "115455.768000", "115455.774000", "115455.777000", "115455.779000", "115455.782000", "115455.784000", "115455.787000", "115455.789000", "115455.792000", "115455.794000", "115455.797000", "115455.799000", "115455.802000", "115455.804000", "115455.806000", "115455.809000", "115455.811000", "115455.814000", "115515.762000", "115515.764000", "115515.767000", "115515.769000", "115515.772000", "115515.774000", "115515.777000", "115515.779000", "115515.782000", "115515.784000", "115515.787000", "115515.789000", "115515.792000", "115515.794000", "115515.797000", "115515.799000", "115515.802000", "115515.804000", "115515.806000", "115515.809000", "115535.761000", "115535.764000", "115535.766000", "115535.769000", "115535.771000", "115535.774000", "115535.776000", "115535.779000", "115535.781000", "115535.784000", "115535.787000", "115535.789000", "115535.792000", "115535.795000", "115535.798000", "115535.800000", "115535.803000", "115535.806000", "115535.809000", "115535.812000", "115555.783000", "115555.786000", "115555.788000", "115555.791000", "115555.793000", "115555.796000", "115555.798000", "115555.801000", "115555.803000", "115555.806000", "115555.808000", "115555.811000", "115555.813000", "115555.816000", "115555.818000", "115555.821000", "115555.823000", "115555.826000", "115555.828000", "115555.831000", "115555.833000", "115615.776000", "115615.779000", "115615.781000", "115615.784000", "115615.786000", "115615.789000", "115615.791000", "115615.794000", "115615.796000", "115615.799000", "115615.801000", "115615.804000", "115615.806000", "115615.809000", "115615.811000", "115615.814000", "115615.816000", "115615.819000", "115615.821000", "115615.824000", "115655.801000", "115655.804000", "115655.806000", "115655.809000", "115655.811000", "115655.814000", "115655.816000", "115655.819000", "115655.821000", "115655.824000", "115655.826000", "115655.829000", "115655.831000", "115655.834000", "115655.836000", "115655.839000", "115655.841000", "115655.844000", "115655.846000", "115655.849000", "115655.851000", "115655.854000", "115655.856000", "115655.859000", "115655.861000", "115655.864000", "115655.866000", "115735.792000", "115735.795000", "115735.798000", "115735.800000", "115735.802000", "115735.805000", "115735.807000", "115735.810000", "115735.812000", "115735.815000", "115735.817000", "115735.820000", "115735.822000", "115735.825000", "115735.827000", "115735.830000", "115735.832000", "115735.835000", "115735.837000", "115735.840000", "115735.842000", "115735.845000", "115735.847000", "115735.850000", "115735.852000", "115735.855000", "115735.857000", "115815.798000", "115815.801000", "115815.803000", "115815.806000", "115815.808000", "115815.811000", "115815.814000", "115815.816000", "115815.818000", "115815.821000", "115815.823000", "115815.826000", "115815.828000", "115815.831000", "115815.833000", "115815.836000", "115815.839000", "115815.841000", "115815.843000", "115815.846000", "115815.848000", "115815.851000", "115815.853000", "115815.856000", "115815.858000", "115815.861000", "115815.863000", "115855.800000", "115855.803000", "115855.806000", "115855.808000", "115855.811000", "115855.813000", "115855.816000", "115855.818000", "115855.821000", "115855.823000", "115855.826000", "115855.836000", "115855.839000", "115855.841000", "115855.844000", "115855.846000", "115855.849000", "115855.851000", "115855.854000", "115855.856000", "115855.859000", "115855.861000", "115855.864000", "115855.866000", "115855.869000", "115855.871000", "115855.874000", "115935.781000", "115935.784000", "115935.787000", "115935.790000", "115935.792000", "115935.795000", "115935.797000", "115935.800000", "115935.803000", "115935.805000", "115935.808000", "115935.810000", "115935.813000", "115935.815000", "115935.818000", "115935.820000", "115935.823000", "115935.825000", "115935.828000", "115935.830000", "115935.833000", "115935.835000", "115935.838000", "115935.840000", "115935.843000", "115935.845000", "120015.788000", "120015.802000", "120015.804000", "120015.807000", "120015.809000", "120015.812000", "120015.814000", "120015.817000", "120015.819000", "120015.822000", "120015.824000", "120015.827000", "120015.830000", "120015.832000", "120015.834000", "120015.837000", "120015.839000", "120015.842000", "120015.845000", "120015.847000", "120015.850000", "120015.852000", "120015.854000", "120015.857000", "120015.859000", "120015.863000", "120015.866000", "120055.790000", "120055.793000", "120055.795000", "120055.798000", "120055.801000", "120055.803000", "120055.806000", "120055.808000", "120055.811000", "120055.813000", "120055.816000", "120055.818000", "120055.821000", "120055.823000", "120055.826000", "120055.828000", "120055.831000", "120055.833000", "120055.836000", "120055.838000", "120055.841000", "120055.843000", "120055.846000", "120055.848000", "120055.851000", "120055.853000", "120055.856000", "120135.793000", "120135.796000", "120135.798000", "120135.801000", "120135.803000", "120135.806000", "120135.808000", "120135.811000", "120135.813000", "120135.815000", "120135.818000", "120135.821000", "120135.823000", "120135.826000", "120135.828000", "120135.830000", "120135.833000", "120135.835000", "120135.838000", "120135.840000", "120135.843000", "120135.845000", "120135.848000", "120135.850000", "120135.853000", "120135.855000", "120135.858000", "120215.802000", "120215.804000", "120215.807000", "120215.810000", "120215.812000", "120215.815000", "120215.817000", "120215.820000", "120215.822000", "120215.825000", "120215.827000", "120215.830000", "120215.832000", "120215.835000", "120215.837000", "120215.840000", "120215.842000", "120215.845000", "120215.847000", "120215.850000", "120215.852000", "120215.855000", "120215.857000", "120215.860000", "120215.862000", "120215.865000", "120215.868000", "120255.848000", "120255.851000", "120255.854000", "120255.857000", "120255.859000", "120255.862000", "120255.864000", "120255.867000", "120255.870000", "120255.872000", "120255.874000", "120255.877000", "120255.880000", "120255.882000", "120255.885000", "120255.887000", "120255.890000", "120255.892000", "120255.895000", "120255.897000", "120255.900000", "120255.902000", "120255.905000", "120255.908000", "120255.910000", "120255.913000", "120255.915000", "120335.804000", "120335.807000", "120335.809000", "120335.820000", "120335.822000", "120335.825000", "120335.827000", "120335.830000", "120335.833000", "120335.835000", "120335.838000", "120335.840000", "120335.843000", "120335.845000", "120335.848000", "120335.850000", "120335.853000", "120335.855000", "120335.858000", "120335.860000", "120335.863000", "120335.865000", "120335.868000", "120335.871000", "120335.873000", "120335.876000", "120416.207000", "120416.210000", "120416.213000", "120416.215000", "120416.217000", "120416.220000", "120416.223000", "120416.225000", "120416.228000", "120416.230000", "120416.233000", "120416.235000", "120416.238000", "120416.240000", "120416.243000", "120416.245000", "120416.248000", "120416.250000", "120416.253000", "120416.256000", "120416.258000", "120416.261000", "120416.263000", "120416.266000", "120416.268000", "120416.271000", "120416.273000", "120422.218000", "120422.221000", "120422.224000", "120422.226000", "120422.229000"],
