{
  "AcquisitionMatrixPE": 104,
  "AcquisitionNumber": 1,
  "AcquisitionTime": "17:36:30.992500",
  "BandwidthPerPixelPhaseEncode": 17.17,
  "BaseResolution": 104,
  "BodyPartExamined": "BRAIN",
  "CoilCombinationMethod": "Sum of Squares",
  "ConsistencyInfo": "N4_VE11C_LATEST_20160120",
  "ConversionSoftware": "dcm2niix",
  "ConversionSoftwareVersion": "v1.0.20211006",
  "DerivedVendorReportedEchoSpacing": 0.000560011,
  "DeviceSerialNumber": "167006",
  "DwellTime": 2.1e-06,
  "EchoTime": 0.037,
  "EchoTrainLength": 104,
  "EffectiveEchoSpacing": 0.000560011,
  "FlipAngle": 52,
  "HeudiconvVersion": "0.10.0",
  "ImageComments": "Unaliased MB4/PE3/LB",
  "ImageOrientationPatientDICOM": [0.999796, -0.0104117, 0.017316, 0.0162297, 0.924306, -0.381308],
  "ImageOrientationText": "Tra>Cor(-22.4)>Sag(0.7)",
  "ImageType": [
    "ORIGINAL",
    "PRIMARY",
    "M",
    "MB",
    "ND",
    "MOSAIC"
],
  "ImagingFrequency": 123.259,
  "InPlanePhaseEncodingDirectionDICOM": "COL",
  "InstitutionAddress": "Chemin Queen-Mary 4565,Montreal,District,CA,H3W 1W5",
  "InstitutionName": "IUGM",
  "InstitutionalDepartmentName": "Department",
  "MRAcquisitionType": "2D",
  "MagneticFieldStrength": 3,
  "Manufacturer": "Siemens",
  "ManufacturersModelName": "Prisma_fit",
  "MatrixCoilMode": "SENSE",
  "Modality": "MR",
  "MultibandAccelerationFactor": 4,
  "PartialFourier": 1,
  "PatientPosition": "HFS",
  "PercentPhaseFOV": 100,
  "PercentSampling": 100,
  "PhaseEncodingDirection": "j",
  "PhaseEncodingSteps": 104,
  "PhaseResolution": 1,
  "PixelBandwidth": 2290,
  "ProcedureStepDescription": "games^mario",
  "ProtocolName": "func_task-mario_run-05",
  "PulseSequenceDetails": "%CustomerSeq%\\cmrr_mbep2d_bold",
  "ReceiveCoilActiveElements": "HC1-7;NC1,2",
  "ReceiveCoilName": "HeadNeck_64",
  "ReconMatrixPE": 104,
  "RepetitionTime": 1.49,
  "SAR": 0.0577699,
  "ScanOptions": "FS",
  "ScanningSequence": "EP",
  "SequenceName": "epfid2d1_104",
  "SequenceVariant": "SK\\SS",
  "SeriesDescription": "func_task-mario_run-05",
  "SeriesNumber": 22,
  "ShimSetting": [607, -7248, -8841, 332, -10, -337, 30, 16],
  "SliceThickness": 2,
  "SliceTiming": [0, 0.785, 0.1, 0.8825, 0.1975, 0.98, 0.295, 1.0775, 0.3925, 1.1775, 0.49, 1.275, 0.59, 1.3725, 0.6875, 0, 0.785, 0.1, 0.8825, 0.1975, 0.98, 0.295, 1.0775, 0.3925, 1.1775, 0.49, 1.275, 0.59, 1.3725, 0.6875, 0, 0.785, 0.1, 0.8825, 0.1975, 0.98, 0.295, 1.0775, 0.3925, 1.1775, 0.49, 1.275, 0.59, 1.3725, 0.6875, 0, 0.785, 0.1, 0.8825, 0.1975, 0.98, 0.295, 1.0775, 0.3925, 1.1775, 0.49, 1.275, 0.59, 1.3725, 0.6875],
  "SoftwareVersions": "syngo MR E11",
  "SpacingBetweenSlices": 2,
  "StationName": "MRC35049",
  "TaskName": "mario",
  "TotalReadoutTime": 0.0576811,
  "TxRefAmp": 282.819,
  "WipMemBlock": "11791a33-16d9-428a-82e0-fe7d53d93058||Sequence: R016 ve11c/master r/e634e98; Dec 19 2017 11:00:25 by eja",
  "dcmmeta_affine": [
    [-1.9995917081832886, 0.03245933726429939, 0.024070460349321365, 102.07971954345703],
    [0.020823456346988678, 1.8486113548278809, -0.7630217671394348, -61.18486022949219],
    [0.03463205695152283, 0.762615442276001, 1.8485718965530396, -70.776611328125],
    [0.0, 0.0, 0.0, 1.0]
],
  "dcmmeta_reorient_transform": [
    [0.0, -1.0, 0.0, 103.0],
    [1.0, 0.0, 0.0, 0.0],
    [0.0, 0.0, 1.0, 0.0],
    [0.0, 0.0, 0.0, 1.0]
],
  "dcmmeta_shape": [104, 104, 60, 448],
  "dcmmeta_slice_dim": 2,
  "dcmmeta_version": 0.6,
  "global": {
    "const": {
      "AcquisitionMatrix": [104, 0, 0, 104],
      "AngioFlag": "N",
      "BitsAllocated": 16,
      "BitsStored": 16,
      "BodyPartExamined": "BRAIN",
      "Columns": 832,
      "EchoNumbers": 1,
      "EchoTime": 37.0,
      "EchoTrainLength": 104,
      "FlipAngle": 52.0,
      "HighBit": 15,
      "ImageOrientationPatient": [0.9997958547058, -0.0104117284585, 0.01731602793967, 0.01622966822777, 0.92430569774518, -0.381307716923],
      "ImagePositionPatient": [-845.0896112131, -794.53692172878, 272.75872592014],
      "ImageType": [
        "ORIGINAL",
        "PRIMARY",
        "M",
        "MB",
        "ND",
        "MOSAIC"
],
      "ImagedNucleus": "1H",
      "ImagingFrequency": 123.25884,
      "InPlanePhaseEncodingDirection": "COL",
      "MRAcquisitionType": "2D",
      "MagneticFieldStrength": 3.0,
      "Manufacturer": "SIEMENS",
      "ManufacturerModelName": "Prisma_fit",
      "Modality": "MR",
      "NumberOfAverages": 1.0,
      "NumberOfPhaseEncodingSteps": 104,
      "PercentPhaseFieldOfView": 100.0,
      "PercentSampling": 100.0,
      "PerformedProcedureStepStartTime": "161010.658000",
      "PhotometricInterpretation": "MONOCHROME2",
      "PixelBandwidth": 2290.0,
      "PixelRepresentation": 0,
      "PixelSpacing": [2.0, 2.0],
      "ProtocolName": "func_task-mario_run-05",
      "RepetitionTime": 1490.0,
      "Rows": 832,
      "SAR": 0.05776994829916,
      "SamplesPerPixel": 1,
      "ScanOptions": "FS",
      "ScanningSequence": "EP",
      "SequenceName": "epfid2d1_104",
      "SequenceVariant": [
        "SK",
        "SS"
],
      "SeriesDescription": "func_task-mario_run-05",
      "SeriesNumber": 22,
      "SeriesTime": "173747.710000",
      "SliceLocation": -40.84658659363,
      "SliceThickness": 2.0,
      "SmallestImagePixelValue": 0,
      "SoftwareVersions": "syngo MR E11",
      "SpacingBetweenSlices": 1.9999999467399,
      "SpecificCharacterSet": "ISO_IR 100",
      "StudyID": "1",
      "StudyTime": "161010.583000",
      "TransmitCoilName": "Body",
      "VariableFlipAngleFlag": "N",
      "WindowCenterWidthExplanation": "Algo1",
      "dBdt": 0.0},
    "slices": {}
  },
  "time": {
    "samples": {
      "AcquisitionNumber": [1, 2, 3, 4, 5, 6, 7, 8, 9, 10, 11, 12, 13, 14, 15, 16, 17, 18, 19, 20, 21, 22, 23, 24, 25, 26, 27, 28, 29, 30, 31, 32, 33, 34, 35, 36, 37, 38, 39, 40, 41, 42, 43, 44, 45, 46, 47, 48, 49, 50, 51, 52, 53, 54, 55, 56, 57, 58, 59, 60, 61, 62, 63, 64, 65, 66, 67, 68, 69, 70, 71, 72, 73, 74, 75, 76, 77, 78, 79, 80, 81, 82, 83, 84, 85, 86, 87, 88, 89, 90, 91, 92, 93, 94, 95, 96, 97, 98, 99, 100, 101, 102, 103, 104, 105, 106, 107, 108, 109, 110, 111, 112, 113, 114, 115, 116, 117, 118, 119, 120, 121, 122, 123, 124, 125, 126, 127, 128, 129, 130, 131, 132, 133, 134, 135, 136, 137, 138, 139, 140, 141, 142, 143, 144, 145, 146, 147, 148, 149, 150, 151, 152, 153, 154, 155, 156, 157, 158, 159, 160, 161, 162, 163, 164, 165, 166, 167, 168, 169, 170, 171, 172, 173, 174, 175, 176, 177, 178, 179, 180, 181, 182, 183, 184, 185, 186, 187, 188, 189, 190, 191, 192, 193, 194, 195, 196, 197, 198, 199, 200, 201, 202, 203, 204, 205, 206, 207, 208, 209, 210, 211, 212, 213, 214, 215, 216, 217, 218, 219, 220, 221, 222, 223, 224, 225, 226, 227, 228, 229, 230, 231, 232, 233, 234, 235, 236, 237, 238, 239, 240, 241, 242, 243, 244, 245, 246, 247, 248, 249, 250, 251, 252, 253, 254, 255, 256, 257, 258, 259, 260, 261, 262, 263, 264, 265, 266, 267, 268, 269, 270, 271, 272, 273, 274, 275, 276, 277, 278, 279, 280, 281, 282, 283, 284, 285, 286, 287, 288, 289, 290, 291, 292, 293, 294, 295, 296, 297, 298, 299, 300, 301, 302, 303, 304, 305, 306, 307, 308, 309, 310, 311, 312, 313, 314, 315, 316, 317, 318, 319, 320, 321, 322, 323, 324, 325, 326, 327, 328, 329, 330, 331, 332, 333, 334, 335, 336, 337, 338, 339, 340, 341, 342, 343, 344, 345, 346, 347, 348, 349, 350, 351, 352, 353, 354, 355, 356, 357, 358, 359, 360, 361, 362, 363, 364, 365, 366, 367, 368, 369, 370, 371, 372, 373, 374, 375, 376, 377, 378, 379, 380, 381, 382, 383, 384, 385, 386, 387, 388, 389, 390, 391, 392, 393, 394, 395, 396, 397, 398, 399, 400, 401, 402, 403, 404, 405, 406, 407, 408, 409, 410, 411, 412, 413, 414, 415, 416, 417, 418, 419, 420, 421, 422, 423, 424, 425, 426, 427, 428, 429, 430, 431, 432, 433, 434, 435, 436, 437, 438, 439, 440, 441, 442, 443, 444, 445, 446, 447, 448],
      "AcquisitionTime": ["173630.992500", "173632.482500", "173633.972500", "173635.462500", "173636.952500", "173638.442500", "173639.932500", "173641.422500", "173642.912500", "173644.402500", "173645.892500", "173647.382500", "173648.872500", "173650.362500", "173651.852500", "173653.342500", "173654.832500", "173656.322500", "173657.812500", "173659.302500", "173700.792500", "173702.282500", "173703.772500", "173705.262500", "173706.752500", "173708.242500", "173709.732500", "173711.222500", "173712.712500", "173714.202500", "173715.692500", "173717.182500", "173718.672500", "173720.162500", "173721.652500", "173723.142500", "173724.632500", "173726.122500", "173727.612500", "173729.102500", "173730.592500", "173732.082500", "173733.572500", "173735.062500", "173736.552500", "173738.042500", "173739.532500", "173741.022500", "173742.512500", "173744.002500", "173745.492500", "173746.982500", "173748.472500", "173749.962500", "173751.452500", "173752.942500", "173754.432500", "173755.922500", "173757.412500", "173758.902500", "173800.392500", "173801.882500", "173803.372500", "173804.862500", "173806.352500", "173807.842500", "173809.332500", "173810.822500", "173812.312500", "173813.802500", "173815.292500", "173816.782500", "173818.272500", "173819.762500", "173821.252500", "173822.742500", "173824.232500", "173825.722500", "173827.212500", "173828.702500", "173830.192500", "173831.682500", "173833.172500", "173834.662500", "173836.152500", "173837.642500", "173839.132500", "173840.622500", "173842.112500", "173843.602500", "173845.092500", "173846.582500", "173848.072500", "173849.562500", "173851.052500", "173852.542500", "173854.032500", "173855.522500", "173857.012500", "173858.502500", "173859.992500", "173901.482500", "173902.972500", "173904.462500", "173905.952500", "173907.442500", "173908.932500", "173910.422500", "173911.912500", "173913.402500", "173914.892500", "173916.382500", "173917.872500", "173919.362500", "173920.852500", "173922.342500", "173923.832500", "173925.322500", "173926.812500", "173928.302500", "173929.792500", "173931.282500", "173932.772500", "173934.262500", "173935.752500", "173937.242500", "173938.732500", "173940.222500", "173941.712500", "173943.202500", "173944.692500", "173946.182500", "173947.672500", "173949.162500", "173950.652500", "173952.142500", "173953.632500", "173955.122500", "173956.612500", "173958.102500", "173959.592500", "174001.082500", "174002.572500", "174004.062500", "174005.552500", "174007.042500", "174008.532500", "174010.022500", "174011.512500", "174013.002500", "174014.492500", "174015.982500", "174017.472500", "174018.962500", "174020.452500", "174021.942500", "174023.432500", "174024.922500", "174026.412500", "174027.902500", "174029.392500", "174030.882500", "174032.372500", "174033.862500", "174035.352500", "174036.842500", "174038.332500", "174039.822500", "174041.312500", "174042.802500", "174044.292500", "174045.782500", "174047.272500", "174048.762500", "174050.252500", "174051.742500", "174053.232500", "174054.722500", "174056.212500", "174057.702500", "174059.192500", "174100.682500", "174102.172500", "174103.662500", "174105.152500", "174106.642500", "174108.132500", "174109.622500", "174111.112500", "174112.602500", "174114.092500", "174115.582500", "174117.072500", "174118.562500", "174120.052500", "174121.542500", "174123.032500", "174124.522500", "174126.012500", "174127.502500", "174128.992500", "174130.482500", "174131.972500", "174133.462500", "174134.952500", "174136.442500", "174137.932500", "174139.422500", "174140.912500", "174142.402500", "174143.892500", "174145.382500", "174146.872500", "174148.362500", "174149.852500", "174151.342500", "174152.832500", "174154.322500", "174155.812500", "174157.302500", "174158.792500", "174200.282500", "174201.772500", "174203.262500", "174204.752500", "174206.242500", "174207.732500", "174209.222500", "174210.712500", "174212.202500", "174213.692500", "174215.182500", "174216.672500", "174218.162500", "174219.652500", "174221.142500", "174222.632500", "174224.122500", "174225.612500", "174227.102500", "174228.592500", "174230.082500", "174231.572500", "174233.062500", "174234.552500", "174236.042500", "174237.532500", "174239.022500", "174240.512500", "174242.002500", "174243.492500", "174244.982500", "174246.472500", "174247.962500", "174249.452500", "174250.942500", "174252.432500", "174253.922500", "174255.412500", "174256.902500", "174258.392500", "174259.882500", "174301.372500", "174302.862500", "174304.352500", "174305.842500", "174307.332500", "174308.822500", "174310.312500", "174311.802500", "174313.292500", "174314.782500", "174316.272500", "174317.762500", "174319.252500", "174320.742500", "174322.232500", "174323.722500", "174325.212500", "174326.702500", "174328.192500", "174329.682500", "174331.172500", "174332.662500", "174334.152500", "174335.642500", "174337.132500", "174338.622500", "174340.112500", "174341.602500", "174343.092500", "174344.582500", "174346.072500", "174347.562500", "174349.052500", "174350.542500", "174352.032500", "174353.522500", "174355.012500", "174356.502500", "174357.992500", "174359.482500", "174400.972500", "174402.462500", "174403.952500", "174405.442500", "174406.932500", "174408.422500", "174409.912500", "174411.402500", "174412.892500", "174414.382500", "174415.872500", "174417.362500", "174418.852500", "174420.342500", "174421.832500", "174423.322500", "174424.812500", "174426.302500", "174427.792500", "174429.282500", "174430.772500", "174432.262500", "174433.752500", "174435.242500", "174436.732500", "174438.222500", "174439.712500", "174441.202500", "174442.692500", "174444.182500", "174445.672500", "174447.162500", "174448.652500", "174450.142500", "174451.632500", "174453.122500", "174454.612500", "174456.102500", "174457.592500", "174459.082500", "174500.572500", "174502.062500", "174503.552500", "174505.042500", "174506.532500", "174508.022500", "174509.512500", "174511.002500", "174512.492500", "174513.982500", "174515.472500", "174516.962500", "174518.452500", "174519.942500", "174521.432500", "174522.922500", "174524.412500", "174525.902500", "174527.392500", "174528.882500", "174530.372500", "174531.862500", "174533.352500", "174534.842500", "174536.332500", "174537.822500", "174539.312500", "174540.802500", "174542.292500", "174543.782500", "174545.272500", "174546.762500", "174548.252500", "174549.742500", "174551.232500", "174552.722500", "174554.212500", "174555.702500", "174557.192500", "174558.682500", "174600.172500", "174601.662500", "174603.152500", "174604.642500", "174606.132500", "174607.622500", "174609.112500", "174610.602500", "174612.092500", "174613.582500", "174615.072500", "174616.562500", "174618.052500", "174619.542500", "174621.032500", "174622.522500", "174624.012500", "174625.502500", "174626.992500", "174628.482500", "174629.972500", "174631.462500", "174632.952500", "174634.442500", "174635.932500", "174637.422500", "174638.912500", "174640.402500", "174641.892500", "174643.382500", "174644.872500", "174646.362500", "174647.852500", "174649.342500", "174650.832500", "174652.322500", "174653.812500", "174655.302500", "174656.792500", "174658.282500", "174659.772500", "174701.262500", "174702.752500", "174704.242500", "174705.732500", "174707.222500", "174708.712500", "174710.202500", "174711.692500", "174713.182500", "174714.672500", "174716.162500", "174717.652500", "174719.142500", "174720.632500", "174722.122500", "174723.612500", "174725.102500", "174726.592500", "174728.082500", "174729.572500", "174731.062500", "174732.552500", "174734.042500", "174735.532500", "174737.022500"],
      "ContentTime": ["173747.714000", "173747.717000", "173747.723000", "173747.726000", "173747.729000", "173747.733000", "173747.736000", "173747.739000", "173747.743000", "173747.746000", "173747.750000", "173747.753000", "173747.757000", "173747.760000", "173747.763000", "173747.766000", "173747.770000", "173747.773000", "173747.776000", "173747.780000", "173747.783000", "173747.786000", "173747.790000", "173807.676000", "173807.680000", "173807.683000", "173807.686000", "173807.690000", "173807.693000", "173807.696000", "173807.699000", "173807.702000", "173807.706000", "173807.709000", "173807.712000", "173807.716000", "173807.719000", "173807.722000", "173807.725000", "173807.728000", "173807.732000", "173807.735000", "173807.738000", "173807.741000", "173827.676000", "173827.680000", "173827.683000", "173827.686000", "173827.690000", "173827.693000", "173827.696000", "173827.699000", "173827.702000", "173827.706000", "173827.709000", "173827.712000", "173827.715000", "173827.719000", "173827.722000", "173827.725000", "173827.728000", "173827.732000", "173827.735000", "173827.738000", "173847.676000", "173847.680000", "173847.683000", "173847.686000", "173847.689000", "173847.693000", "173847.696000", "173847.699000", "173847.702000", "173847.706000", "173847.709000", "173847.712000", "173847.715000", "173847.719000", "173847.722000", "173847.725000", "173847.749000", "173847.752000", "173847.755000", "173847.758000", "173907.675000", "173907.679000", "173907.682000", "173907.685000", "173907.689000", "173907.692000", "173907.695000", "173907.698000", "173907.701000", "173907.705000", "173907.708000", "173907.711000", "173907.715000", "173907.719000", "173907.722000", "173907.725000", "173907.729000", "173907.732000", "173907.735000", "173907.738000", "173947.676000", "173947.680000", "173947.683000", "173947.686000", "173947.690000", "173947.693000", "173947.696000", "173947.699000", "173947.702000", "173947.706000", "173947.709000", "173947.712000", "173947.715000", "173947.726000", "173947.730000", "173947.733000", "173947.736000", "173947.739000", "173947.743000", "173947.746000", "173947.749000", "173947.752000", "173947.755000", "173947.759000", "173947.762000", "173947.765000", "173947.769000", "174027.676000", "174027.680000", "174027.683000", "174027.686000", "174027.690000", "174027.693000", "174027.696000", "174027.699000", "174027.703000", "174027.706000", "174027.709000", "174027.712000", "174027.716000", "174027.719000", "174027.722000", "174027.725000", "174027.729000", "174027.732000", "174027.735000", "174027.738000", "174027.741000", "174027.745000", "174027.748000", "174027.751000", "174027.755000", "174027.773000", "174027.776000", "174107.676000", "174107.680000", "174107.683000", "174107.686000", "174107.690000", "174107.693000", "174107.696000", "174107.699000", "174107.703000", "174107.706000", "174107.709000", "174107.712000", "174107.716000", "174107.719000", "174107.722000", "174107.725000", "174107.729000", "174107.732000", "174107.735000", "174107.738000", "174107.742000", "174107.745000", "174107.748000", "174107.751000", "174107.766000", "174107.770000", "174107.773000", "174147.675000", "174147.679000", "174147.682000", "174147.685000", "174147.689000", "174147.692000", "174147.696000", "174147.699000", "174147.702000", "174147.706000", "174147.709000", "174147.712000", "174147.716000", "174147.719000", "174147.722000", "174147.744000", "174147.748000", "174147.751000", "174147.754000", "174147.758000", "174147.761000", "174147.764000", "174147.767000", "174147.771000", "174147.774000", "174147.777000", "174227.676000", "174227.680000", "174227.683000", "174227.686000", "174227.690000", "174227.693000", "174227.696000", "174227.700000", "174227.703000", "174227.706000", "174227.710000", "174227.713000", "174227.716000", "174227.719000", "174227.723000", "174227.726000", "174227.729000", "174227.732000", "174227.736000", "174227.739000", "174227.742000", "174227.745000", "174227.749000", "174227.752000", "174227.755000", "174227.758000", "174227.762000", "174307.676000", "174307.680000", "174307.683000", "174307.687000", "174307.690000", "174307.693000", "174307.696000", "174307.700000", "174307.703000", "174307.706000", "174307.709000", "174307.713000", "174307.716000", "174307.719000", "174307.722000", "174307.726000", "174307.729000", "174307.732000", "174307.735000", "174307.739000", "174307.742000", "174307.745000", "174307.748000", "174307.752000", "174307.755000", "174307.758000", "174307.762000", "174347.675000", "174347.679000", "174347.682000", "174347.685000", "174347.689000", "174347.694000", "174347.697000", "174347.701000", "174347.721000", "174347.725000", "174347.728000", "174347.731000", "174347.735000", "174347.738000", "174347.741000", "174347.745000", "174347.748000", "174347.751000", "174347.755000", "174347.758000", "174347.761000", "174347.764000", "174347.768000", "174347.771000", "174347.774000", "174347.778000", "174347.782000", "174427.676000", "174427.680000", "174427.683000", "174427.687000", "174427.690000", "174427.694000", "174427.697000", "174427.700000", "174427.704000", "174427.707000", "174427.710000", "174427.714000", "174427.717000", "174427.720000", "174427.723000", "174427.727000", "174427.730000", "174427.734000", "174427.737000", "174427.740000", "174427.743000", "174427.747000", "174427.750000", "174427.753000", "174427.757000", "174427.760000", "174427.763000", "174507.676000", "174507.680000", "174507.683000", "174507.686000", "174507.690000", "174507.693000", "174507.696000", "174507.699000", "174507.703000", "174507.706000", "174507.709000", "174507.713000", "174507.716000", "174507.719000", "174507.722000", "174507.726000", "174507.729000", "174507.733000", "174507.736000", "174507.739000", "174507.742000", "174507.746000", "174507.749000", "174507.752000", "174507.755000", "174507.759000", "174507.762000", "174547.676000", "174547.680000", "174547.683000", "174547.686000", "174547.690000", "174547.693000", "174547.696000", "174547.699000", "174547.703000", "174547.706000", "174547.709000", "174547.713000", "174547.716000", "174547.719000", "174547.722000", "174547.725000", "174547.730000", "174547.734000", "174547.737000", "174547.740000", "174547.743000", "174547.747000", "174547.750000", "174547.753000", "174547.756000", "174547.760000", "174547.763000", "174627.675000", "174627.679000", "174627.682000", "174627.686000", "174627.689000", "174627.693000", "174627.697000", "174627.700000", "174627.703000", "174627.707000", "174627.710000", "174627.713000", "174627.716000", "174627.720000", "174627.723000", "174627.726000", "174627.730000", "174627.733000", "174627.736000", "174627.739000", "174627.743000", "174627.746000", "174627.750000", "174627.753000", "174627.756000", "174627.760000", "174707.676000", "174707.680000", "174707.683000", "174707.686000", "174707.690000", "174707.693000", "174707.696000", "174707.699000", "174707.703000", "174707.706000", "174707.709000", "174707.713000", "174707.716000", "174707.719000", "174707.722000", "174707.726000", "174707.729000", "174707.732000", "174707.736000", "174707.739000", "174707.742000", "174707.746000", "174707.749000", "174707.752000", "174707.755000", "174707.759000", "174707.762000", "174740.264000", "174740.268000", "174740.271000", "174740.274000", "174740.278000", "174740.281000", "174740.284000", "174740.288000", "174740.291000", "174740.294000", "174740.297000", "174740.301000", "174740.304000", "174740.307000", "174740.310000", "174740.314000", "174740.317000", "174740.320000", "174740.324000", "174740.327000", "174740.330000", "174740.333000"],
