{
  "AcquisitionMatrixPE": 104,
  "AcquisitionNumber": 1,
  "AcquisitionTime": "17:21:22.697500",
  "BandwidthPerPixelPhaseEncode": 17.17,
  "BaseResolution": 104,
  "BodyPartExamined": "BRAIN",
  "CoilCombinationMethod": "Sum of Squares",
  "ConsistencyInfo": "N4_VE11C_LATEST_20160120",
  "ConversionSoftware": "dcm2niix",
  "ConversionSoftwareVersion": "v1.0.20211006",
  "DerivedVendorReportedEchoSpacing": 0.000560011,
  "DeviceSerialNumber": "167006",
  "DwellTime": 2.1e-06,
  "EchoTime": 0.037,
  "EchoTrainLength": 104,
  "EffectiveEchoSpacing": 0.000560011,
  "FlipAngle": 52,
  "HeudiconvVersion": "0.10.0",
  "ImageComments": "Unaliased MB4/PE3/LB",
  "ImageOrientationPatientDICOM": [0.999796, -0.0104117, 0.017316, 0.0162297, 0.924306, -0.381308],
  "ImageOrientationText": "Tra>Cor(-22.4)>Sag(0.7)",
  "ImageType": [
    "ORIGINAL",
    "PRIMARY",
    "M",
    "MB",
    "ND",
    "MOSAIC"
],
  "ImagingFrequency": 123.259,
  "InPlanePhaseEncodingDirectionDICOM": "COL",
  "InstitutionAddress": "Chemin Queen-Mary 4565,Montreal,District,CA,H3W 1W5",
  "InstitutionName": "IUGM",
  "InstitutionalDepartmentName": "Department",
  "MRAcquisitionType": "2D",
  "MagneticFieldStrength": 3,
  "Manufacturer": "Siemens",
  "ManufacturersModelName": "Prisma_fit",
  "MatrixCoilMode": "SENSE",
  "Modality": "MR",
  "MultibandAccelerationFactor": 4,
  "PartialFourier": 1,
  "PatientPosition": "HFS",
  "PercentPhaseFOV": 100,
  "PercentSampling": 100,
  "PhaseEncodingDirection": "j",
  "PhaseEncodingSteps": 104,
  "PhaseResolution": 1,
  "PixelBandwidth": 2290,
  "ProcedureStepDescription": "games^mario",
  "ProtocolName": "func_task-mario_run-04",
  "PulseSequenceDetails": "%CustomerSeq%\\cmrr_mbep2d_bold",
  "ReceiveCoilActiveElements": "HC1-7;NC1,2",
  "ReceiveCoilName": "HeadNeck_64",
  "ReconMatrixPE": 104,
  "RepetitionTime": 1.49,
  "SAR": 0.0577699,
  "ScanOptions": "FS",
  "ScanningSequence": "EP",
  "SequenceName": "epfid2d1_104",
  "SequenceVariant": "SK\\SS",
  "SeriesDescription": "func_task-mario_run-04",
  "SeriesNumber": 19,
  "ShimSetting": [607, -7248, -8841, 332, -10, -337, 30, 16],
  "SliceThickness": 2,
  "SliceTiming": [0, 0.7825, 0.0975, 0.88, 0.195, 0.98, 0.2925, 1.0775, 0.39, 1.175, 0.49, 1.2725, 0.5875, 1.37, 0.685, 0, 0.7825, 0.0975, 0.88, 0.195, 0.98, 0.2925, 1.0775, 0.39, 1.175, 0.49, 1.2725, 0.5875, 1.37, 0.685, 0, 0.7825, 0.0975, 0.88, 0.195, 0.98, 0.2925, 1.0775, 0.39, 1.175, 0.49, 1.2725, 0.5875, 1.37, 0.685, 0, 0.7825, 0.0975, 0.88, 0.195, 0.98, 0.2925, 1.0775, 0.39, 1.175, 0.49, 1.2725, 0.5875, 1.37, 0.685],
  "SoftwareVersions": "syngo MR E11",
  "SpacingBetweenSlices": 2,
  "StationName": "MRC35049",
  "TaskName": "mario",
  "TotalReadoutTime": 0.0576811,
  "TxRefAmp": 282.819,
  "WipMemBlock": "135d83bb-ad53-4c1b-bfdb-e3344520cc46||Sequence: R016 ve11c/master r/e634e98; Dec 19 2017 11:00:25 by eja",
  "dcmmeta_affine": [
    [-1.9995917081832886, 0.03245933726429939, 0.024070460349321365, 102.07971954345703],
    [0.020823456346988678, 1.8486113548278809, -0.7630217671394348, -61.18486022949219],
    [0.03463205695152283, 0.762615442276001, 1.8485718965530396, -70.776611328125],
    [0.0, 0.0, 0.0, 1.0]
],
  "dcmmeta_reorient_transform": [
    [0.0, -1.0, 0.0, 103.0],
    [1.0, 0.0, 0.0, 0.0],
    [0.0, 0.0, 1.0, 0.0],
    [0.0, 0.0, 0.0, 1.0]
],
  "dcmmeta_shape": [104, 104, 60, 506],
  "dcmmeta_slice_dim": 2,
  "dcmmeta_version": 0.6,
  "global": {
    "const": {
      "AcquisitionMatrix": [104, 0, 0, 104],
      "AngioFlag": "N",
      "BitsAllocated": 16,
      "BitsStored": 16,
      "BodyPartExamined": "BRAIN",
      "Columns": 832,
      "EchoNumbers": 1,
      "EchoTime": 37.0,
      "EchoTrainLength": 104,
      "FlipAngle": 52.0,
      "HighBit": 15,
      "ImageOrientationPatient": [0.9997958547058, -0.0104117284585, 0.01731602793967, 0.01622966822777, 0.92430569774518, -0.381307716923],
      "ImagePositionPatient": [-845.0896112131, -794.53692172878, 272.75872592014],
      "ImageType": [
        "ORIGINAL",
        "PRIMARY",
        "M",
        "MB",
        "ND",
        "MOSAIC"
],
      "ImagedNucleus": "1H",
      "ImagingFrequency": 123.25884,
      "InPlanePhaseEncodingDirection": "COL",
      "MRAcquisitionType": "2D",
      "MagneticFieldStrength": 3.0,
      "Manufacturer": "SIEMENS",
      "ManufacturerModelName": "Prisma_fit",
      "Modality": "MR",
      "NumberOfAverages": 1.0,
      "NumberOfPhaseEncodingSteps": 104,
      "PercentPhaseFieldOfView": 100.0,
      "PercentSampling": 100.0,
      "PerformedProcedureStepStartTime": "161010.658000",
      "PhotometricInterpretation": "MONOCHROME2",
      "PixelBandwidth": 2290.0,
      "PixelRepresentation": 0,
      "PixelSpacing": [2.0, 2.0],
      "ProtocolName": "func_task-mario_run-04",
      "RepetitionTime": 1490.0,
      "Rows": 832,
      "SAR": 0.05776994829916,
      "SamplesPerPixel": 1,
      "ScanOptions": "FS",
      "ScanningSequence": "EP",
      "SequenceName": "epfid2d1_104",
      "SequenceVariant": [
        "SK",
        "SS"
],
      "SeriesDescription": "func_task-mario_run-04",
      "SeriesNumber": 19,
      "SeriesTime": "172242.419000",
      "SliceLocation": -40.84658659363,
      "SliceThickness": 2.0,
      "SmallestImagePixelValue": 0,
      "SoftwareVersions": "syngo MR E11",
      "SpacingBetweenSlices": 1.9999999467399,
      "SpecificCharacterSet": "ISO_IR 100",
      "StudyID": "1",
      "StudyTime": "161010.583000",
      "TransmitCoilName": "Body",
      "VariableFlipAngleFlag": "N",
      "WindowCenterWidthExplanation": "Algo1",
      "dBdt": 0.0},
    "slices": {}
  },
  "time": {
    "samples": {
      "AcquisitionNumber": [1, 2, 3, 4, 5, 6, 7, 8, 9, 10, 11, 12, 13, 14, 15, 16, 17, 18, 19, 20, 21, 22, 23, 24, 25, 26, 27, 28, 29, 30, 31, 32, 33, 34, 35, 36, 37, 38, 39, 40, 41, 42, 43, 44, 45, 46, 47, 48, 49, 50, 51, 52, 53, 54, 55, 56, 57, 58, 59, 60, 61, 62, 63, 64, 65, 66, 67, 68, 69, 70, 71, 72, 73, 74, 75, 76, 77, 78, 79, 80, 81, 82, 83, 84, 85, 86, 87, 88, 89, 90, 91, 92, 93, 94, 95, 96, 97, 98, 99, 100, 101, 102, 103, 104, 105, 106, 107, 108, 109, 110, 111, 112, 113, 114, 115, 116, 117, 118, 119, 120, 121, 122, 123, 124, 125, 126, 127, 128, 129, 130, 131, 132, 133, 134, 135, 136, 137, 138, 139, 140, 141, 142, 143, 144, 145, 146, 147, 148, 149, 150, 151, 152, 153, 154, 155, 156, 157, 158, 159, 160, 161, 162, 163, 164, 165, 166, 167, 168, 169, 170, 171, 172, 173, 174, 175, 176, 177, 178, 179, 180, 181, 182, 183, 184, 185, 186, 187, 188, 189, 190, 191, 192, 193, 194, 195, 196, 197, 198, 199, 200, 201, 202, 203, 204, 205, 206, 207, 208, 209, 210, 211, 212, 213, 214, 215, 216, 217, 218, 219, 220, 221, 222, 223, 224, 225, 226, 227, 228, 229, 230, 231, 232, 233, 234, 235, 236, 237, 238, 239, 240, 241, 242, 243, 244, 245, 246, 247, 248, 249, 250, 251, 252, 253, 254, 255, 256, 257, 258, 259, 260, 261, 262, 263, 264, 265, 266, 267, 268, 269, 270, 271, 272, 273, 274, 275, 276, 277, 278, 279, 280, 281, 282, 283, 284, 285, 286, 287, 288, 289, 290, 291, 292, 293, 294, 295, 296, 297, 298, 299, 300, 301, 302, 303, 304, 305, 306, 307, 308, 309, 310, 311, 312, 313, 314, 315, 316, 317, 318, 319, 320, 321, 322, 323, 324, 325, 326, 327, 328, 329, 330, 331, 332, 333, 334, 335, 336, 337, 338, 339, 340, 341, 342, 343, 344, 345, 346, 347, 348, 349, 350, 351, 352, 353, 354, 355, 356, 357, 358, 359, 360, 361, 362, 363, 364, 365, 366, 367, 368, 369, 370, 371, 372, 373, 374, 375, 376, 377, 378, 379, 380, 381, 382, 383, 384, 385, 386, 387, 388, 389, 390, 391, 392, 393, 394, 395, 396, 397, 398, 399, 400, 401, 402, 403, 404, 405, 406, 407, 408, 409, 410, 411, 412, 413, 414, 415, 416, 417, 418, 419, 420, 421, 422, 423, 424, 425, 426, 427, 428, 429, 430, 431, 432, 433, 434, 435, 436, 437, 438, 439, 440, 441, 442, 443, 444, 445, 446, 447, 448, 449, 450, 451, 452, 453, 454, 455, 456, 457, 458, 459, 460, 461, 462, 463, 464, 465, 466, 467, 468, 469, 470, 471, 472, 473, 474, 475, 476, 477, 478, 479, 480, 481, 482, 483, 484, 485, 486, 487, 488, 489, 490, 491, 492, 493, 494, 495, 496, 497, 498, 499, 500, 501, 502, 503, 504, 505, 506],
      "AcquisitionTime": ["172122.697500", "172124.187500", "172125.677500", "172127.167500", "172128.657500", "172130.147500", "172131.637500", "172133.127500", "172134.617500", "172136.107500", "172137.597500", "172139.087500", "172140.577500", "172142.067500", "172143.557500", "172145.047500", "172146.537500", "172148.027500", "172149.517500", "172151.007500", "172152.497500", "172153.987500", "172155.477500", "172156.967500", "172158.457500", "172159.947500", "172201.437500", "172202.927500", "172204.417500", "172205.907500", "172207.397500", "172208.887500", "172210.377500", "172211.867500", "172213.357500", "172214.847500", "172216.337500", "172217.827500", "172219.317500", "172220.807500", "172222.297500", "172223.787500", "172225.277500", "172226.767500", "172228.257500", "172229.747500", "172231.237500", "172232.727500", "172234.217500", "172235.707500", "172237.197500", "172238.687500", "172240.177500", "172241.667500", "172243.157500", "172244.647500", "172246.137500", "172247.627500", "172249.117500", "172250.607500", "172252.097500", "172253.587500", "172255.077500", "172256.567500", "172258.057500", "172259.547500", "172301.037500", "172302.527500", "172304.017500", "172305.507500", "172306.997500", "172308.487500", "172309.977500", "172311.467500", "172312.957500", "172314.447500", "172315.937500", "172317.427500", "172318.917500", "172320.407500", "172321.897500", "172323.387500", "172324.877500", "172326.367500", "172327.857500", "172329.347500", "172330.837500", "172332.327500", "172333.817500", "172335.307500", "172336.797500", "172338.287500", "172339.777500", "172341.267500", "172342.757500", "172344.247500", "172345.737500", "172347.227500", "172348.717500", "172350.207500", "172351.697500", "172353.187500", "172354.677500", "172356.167500", "172357.657500", "172359.147500", "172400.637500", "172402.127500", "172403.617500", "172405.107500", "172406.597500", "172408.087500", "172409.577500", "172411.067500", "172412.557500", "172414.047500", "172415.537500", "172417.027500", "172418.517500", "172420.007500", "172421.497500", "172422.987500", "172424.477500", "172425.967500", "172427.457500", "172428.947500", "172430.437500", "172431.927500", "172433.417500", "172434.907500", "172436.397500", "172437.887500", "172439.377500", "172440.867500", "172442.357500", "172443.847500", "172445.337500", "172446.827500", "172448.317500", "172449.807500", "172451.297500", "172452.787500", "172454.277500", "172455.767500", "172457.257500", "172458.747500", "172500.237500", "172501.727500", "172503.217500", "172504.707500", "172506.197500", "172507.687500", "172509.177500", "172510.667500", "172512.157500", "172513.647500", "172515.137500", "172516.627500", "172518.117500", "172519.607500", "172521.097500", "172522.587500", "172524.077500", "172525.567500", "172527.057500", "172528.547500", "172530.037500", "172531.527500", "172533.017500", "172534.507500", "172535.997500", "172537.487500", "172538.977500", "172540.467500", "172541.957500", "172543.447500", "172544.937500", "172546.427500", "172547.917500", "172549.407500", "172550.897500", "172552.387500", "172553.877500", "172555.367500", "172556.857500", "172558.347500", "172559.837500", "172601.327500", "172602.817500", "172604.307500", "172605.797500", "172607.287500", "172608.777500", "172610.267500", "172611.757500", "172613.247500", "172614.737500", "172616.227500", "172617.717500", "172619.207500", "172620.697500", "172622.187500", "172623.677500", "172625.167500", "172626.657500", "172628.147500", "172629.637500", "172631.127500", "172632.617500", "172634.107500", "172635.597500", "172637.087500", "172638.577500", "172640.067500", "172641.557500", "172643.047500", "172644.537500", "172646.027500", "172647.517500", "172649.007500", "172650.497500", "172651.987500", "172653.477500", "172654.967500", "172656.457500", "172657.947500", "172659.437500", "172700.927500", "172702.417500", "172703.907500", "172705.397500", "172706.887500", "172708.377500", "172709.867500", "172711.357500", "172712.847500", "172714.337500", "172715.827500", "172717.317500", "172718.807500", "172720.297500", "172721.787500", "172723.277500", "172724.767500", "172726.257500", "172727.747500", "172729.237500", "172730.727500", "172732.217500", "172733.707500", "172735.197500", "172736.687500", "172738.177500", "172739.667500", "172741.157500", "172742.647500", "172744.137500", "172745.627500", "172747.117500", "172748.607500", "172750.097500", "172751.587500", "172753.077500", "172754.567500", "172756.057500", "172757.547500", "172759.037500", "172800.527500", "172802.017500", "172803.507500", "172804.997500", "172806.487500", "172807.977500", "172809.467500", "172810.957500", "172812.447500", "172813.937500", "172815.427500", "172816.917500", "172818.407500", "172819.897500", "172821.387500", "172822.877500", "172824.367500", "172825.857500", "172827.347500", "172828.837500", "172830.327500", "172831.817500", "172833.307500", "172834.797500", "172836.287500", "172837.777500", "172839.267500", "172840.757500", "172842.247500", "172843.737500", "172845.227500", "172846.717500", "172848.207500", "172849.697500", "172851.187500", "172852.677500", "172854.167500", "172855.657500", "172857.147500", "172858.637500", "172900.127500", "172901.617500", "172903.107500", "172904.597500", "172906.087500", "172907.577500", "172909.067500", "172910.557500", "172912.047500", "172913.537500", "172915.027500", "172916.517500", "172918.007500", "172919.497500", "172920.987500", "172922.477500", "172923.967500", "172925.457500", "172926.947500", "172928.437500", "172929.927500", "172931.417500", "172932.907500", "172934.397500", "172935.887500", "172937.377500", "172938.867500", "172940.357500", "172941.847500", "172943.337500", "172944.827500", "172946.317500", "172947.807500", "172949.297500", "172950.787500", "172952.277500", "172953.767500", "172955.257500", "172956.747500", "172958.237500", "172959.727500", "173001.217500", "173002.707500", "173004.197500", "173005.687500", "173007.177500", "173008.667500", "173010.157500", "173011.647500", "173013.137500", "173014.627500", "173016.117500", "173017.607500", "173019.097500", "173020.587500", "173022.077500", "173023.567500", "173025.057500", "173026.547500", "173028.037500", "173029.527500", "173031.017500", "173032.507500", "173033.997500", "173035.487500", "173036.977500", "173038.467500", "173039.957500", "173041.447500", "173042.937500", "173044.427500", "173045.917500", "173047.407500", "173048.897500", "173050.387500", "173051.877500", "173053.367500", "173054.857500", "173056.347500", "173057.837500", "173059.327500", "173100.817500", "173102.307500", "173103.797500", "173105.287500", "173106.777500", "173108.267500", "173109.757500", "173111.247500", "173112.737500", "173114.227500", "173115.717500", "173117.207500", "173118.697500", "173120.187500", "173121.677500", "173123.167500", "173124.657500", "173126.147500", "173127.637500", "173129.127500", "173130.617500", "173132.107500", "173133.597500", "173135.087500", "173136.577500", "173138.067500", "173139.557500", "173141.047500", "173142.537500", "173144.027500", "173145.517500", "173147.007500", "173148.497500", "173149.987500", "173151.477500", "173152.967500", "173154.457500", "173155.947500", "173157.437500", "173158.927500", "173200.417500", "173201.907500", "173203.397500", "173204.887500", "173206.377500", "173207.867500", "173209.357500", "173210.847500", "173212.337500", "173213.827500", "173215.317500", "173216.807500", "173218.297500", "173219.787500", "173221.277500", "173222.767500", "173224.257500", "173225.747500", "173227.237500", "173228.727500", "173230.217500", "173231.707500", "173233.197500", "173234.687500", "173236.177500", "173237.667500", "173239.157500", "173240.647500", "173242.137500", "173243.627500", "173245.117500", "173246.607500", "173248.097500", "173249.587500", "173251.077500", "173252.567500", "173254.057500", "173255.547500", "173257.037500", "173258.527500", "173300.017500", "173301.507500", "173302.997500", "173304.487500", "173305.977500", "173307.467500", "173308.957500", "173310.447500", "173311.937500", "173313.427500", "173314.917500", "173316.407500", "173317.897500", "173319.387500", "173320.877500", "173322.367500", "173323.857500", "173325.347500", "173326.837500", "173328.327500", "173329.817500", "173331.307500", "173332.797500", "173334.287500", "173335.777500", "173337.267500", "173338.757500", "173340.247500", "173341.737500", "173343.227500", "173344.717500", "173346.207500", "173347.697500", "173349.187500", "173350.677500", "173352.167500", "173353.657500", "173355.147500"],
      "ContentTime": ["172242.423000", "172242.426000", "172242.429000", "172242.433000", "172242.436000", "172242.440000", "172242.443000", "172242.447000", "172242.450000", "172242.453000", "172242.457000", "172242.460000", "172242.463000", "172242.467000", "172242.470000", "172242.479000", "172242.483000", "172242.486000", "172242.489000", "172242.492000", "172242.496000", "172242.508000", "172242.511000", "172242.514000", "172242.517000", "172242.521000", "172302.382000", "172302.386000", "172302.389000", "172302.392000", "172302.395000", "172302.403000", "172302.406000", "172302.409000", "172302.412000", "172302.416000", "172302.421000", "172302.424000", "172302.428000", "172302.431000", "172302.435000", "172302.440000", "172302.445000", "172302.449000", "172302.452000", "172302.455000", "172322.384000", "172322.389000", "172322.392000", "172322.395000", "172322.399000", "172322.402000", "172322.405000", "172322.409000", "172322.412000", "172322.415000", "172322.418000", "172322.422000", "172322.425000", "172322.428000", "172322.431000", "172322.434000", "172322.438000", "172322.441000", "172322.444000", "172322.447000", "172342.382000", "172342.386000", "172342.389000", "172342.392000", "172342.395000", "172342.399000", "172342.402000", "172342.405000", "172342.408000", "172342.412000", "172342.415000", "172342.418000", "172342.421000", "172342.425000", "172342.428000", "172342.431000", "172342.434000", "172342.438000", "172342.441000", "172342.444000", "172342.447000", "172422.383000", "172422.387000", "172422.390000", "172422.393000", "172422.396000", "172422.400000", "172422.403000", "172422.406000", "172422.409000", "172422.413000", "172422.416000", "172422.419000", "172422.422000", "172422.426000", "172422.429000", "172422.432000", "172422.435000", "172422.439000", "172422.442000", "172422.445000", "172422.449000", "172422.452000", "172422.455000", "172422.458000", "172422.462000", "172422.465000", "172422.468000", "172422.471000", "172422.475000", "172422.478000", "172422.481000", "172422.484000", "172422.488000", "172502.382000", "172502.386000", "172502.389000", "172502.392000", "172502.396000", "172502.399000", "172502.402000", "172502.405000", "172502.409000", "172502.412000", "172502.415000", "172502.418000", "172502.422000", "172502.425000", "172502.428000", "172502.431000", "172502.435000", "172502.438000", "172502.441000", "172502.444000", "172502.448000", "172502.451000", "172502.454000", "172502.457000", "172502.461000", "172502.464000", "172502.467000", "172542.382000", "172542.386000", "172542.389000", "172542.392000", "172542.395000", "172542.408000", "172542.411000", "172542.415000", "172542.418000", "172542.421000", "172542.424000", "172542.428000", "172542.431000", "172542.434000", "172542.438000", "172542.442000", "172542.445000", "172542.448000", "172542.452000", "172542.455000", "172542.458000", "172542.462000", "172542.466000", "172542.469000", "172542.472000", "172542.475000", "172622.383000", "172622.387000", "172622.390000", "172622.393000", "172622.397000", "172622.400000", "172622.403000", "172622.406000", "172622.410000", "172622.413000", "172622.416000", "172622.419000", "172622.423000", "172622.426000", "172622.429000", "172622.433000", "172622.436000", "172622.439000", "172622.442000", "172622.446000", "172622.449000", "172622.452000", "172622.456000", "172622.459000", "172622.462000", "172622.465000", "172622.469000", "172702.383000", "172702.387000", "172702.390000", "172702.393000", "172702.397000", "172702.400000", "172702.403000", "172702.406000", "172702.410000", "172702.413000", "172702.416000", "172702.419000", "172702.423000", "172702.426000", "172702.429000", "172702.433000", "172702.436000", "172702.439000", "172702.442000", "172702.446000", "172702.449000", "172702.463000", "172702.466000", "172702.469000", "172702.473000", "172702.476000", "172702.479000", "172742.382000", "172742.386000", "172742.389000", "172742.392000", "172742.396000", "172742.399000", "172742.402000", "172742.406000", "172742.409000", "172742.412000", "172742.415000", "172742.419000", "172742.422000", "172742.425000", "172742.429000", "172742.432000", "172742.435000", "172742.439000", "172742.442000", "172742.445000", "172742.448000", "172742.452000", "172742.455000", "172742.458000", "172742.461000", "172742.465000", "172742.468000", "172802.382000", "172802.386000", "172802.389000", "172802.392000", "172802.396000", "172802.399000", "172802.402000", "172802.406000", "172802.409000", "172802.412000", "172802.415000", "172802.419000", "172802.422000", "172842.383000", "172842.387000", "172842.390000", "172842.393000", "172842.397000", "172842.400000", "172842.403000", "172842.407000", "172842.410000", "172842.413000", "172842.416000", "172842.419000", "172842.423000", "172842.426000", "172842.429000", "172842.433000", "172842.436000", "172842.439000", "172842.442000", "172842.446000", "172842.449000", "172842.452000", "172842.455000", "172842.459000", "172842.462000", "172842.465000", "172842.468000", "172922.383000", "172922.387000", "172922.390000", "172922.394000", "172922.397000", "172922.400000", "172922.404000", "172922.407000", "172922.410000", "172922.413000", "172922.417000", "172922.420000", "172922.423000", "172922.427000", "172922.430000", "172922.433000", "172922.437000", "172922.440000", "172922.443000", "172922.447000", "172922.450000", "172922.463000", "172922.466000", "172922.470000", "172922.473000", "172922.476000", "172922.479000", "173002.384000", "173002.388000", "173002.392000", "173002.396000", "173002.400000", "173002.404000", "173002.407000", "173002.411000", "173002.414000", "173002.418000", "173002.421000", "173002.425000", "173002.429000", "173002.432000", "173002.435000", "173002.439000", "173002.443000", "173002.446000", "173002.450000", "173002.453000", "173002.460000", "173002.464000", "173002.468000", "173002.472000", "173002.476000", "173002.480000", "173002.483000", "173042.382000", "173042.386000", "173042.389000", "173042.393000", "173042.396000", "173042.399000", "173042.403000", "173042.406000", "173042.409000", "173042.413000", "173042.416000", "173042.419000", "173042.423000", "173042.426000", "173042.429000", "173042.432000", "173042.436000", "173042.439000", "173042.442000", "173042.446000", "173042.451000", "173042.454000", "173042.457000", "173042.461000", "173042.464000", "173042.467000", "173042.470000", "173122.383000", "173122.387000", "173122.390000", "173122.393000", "173122.397000", "173122.400000", "173122.403000", "173122.407000", "173122.410000", "173122.413000", "173122.417000", "173122.420000", "173122.424000", "173122.427000", "173122.430000", "173122.433000", "173122.437000", "173122.440000", "173122.443000", "173122.447000", "173122.450000", "173122.453000", "173122.456000", "173122.460000", "173122.463000", "173122.466000", "173122.470000", "173202.383000", "173202.387000", "173202.390000", "173202.394000", "173202.398000", "173202.401000", "173202.404000", "173202.408000", "173202.411000", "173202.414000", "173202.418000", "173202.421000", "173202.424000", "173202.428000", "173202.431000", "173202.434000", "173202.437000", "173202.441000", "173202.444000", "173202.447000", "173202.451000", "173202.454000", "173202.457000", "173202.460000", "173202.464000", "173202.467000", "173242.382000", "173242.386000", "173242.389000", "173242.393000", "173242.396000", "173242.399000", "173242.403000", "173242.406000", "173242.409000", "173242.413000", "173242.416000", "173242.419000", "173242.422000", "173242.426000", "173242.429000", "173242.433000", "173242.436000", "173242.439000", "173242.443000", "173242.446000", "173242.449000", "173242.453000", "173242.456000", "173242.459000", "173242.462000", "173242.466000", "173242.469000", "173322.383000", "173322.387000", "173322.390000", "173322.394000", "173322.397000", "173322.400000", "173322.404000", "173322.407000", "173322.410000", "173322.413000", "173322.417000", "173322.420000", "173322.423000", "173322.426000", "173322.430000", "173322.433000", "173322.436000", "173322.439000", "173322.443000", "173322.446000", "173322.449000", "173322.453000", "173322.456000", "173322.459000", "173322.462000", "173322.466000", "173322.469000", "173357.638000", "173357.641000", "173357.645000", "173357.648000", "173357.651000", "173357.663000", "173357.666000", "173357.670000", "173357.673000", "173357.676000", "173357.679000", "173357.683000", "173357.686000", "173357.689000", "173357.693000", "173357.696000", "173357.699000", "173357.702000", "173357.706000", "173357.709000", "173357.712000", "173357.715000", "173357.719000", "173357.722000"],
