{
  "AcquisitionMatrixPE": 104,
  "AcquisitionNumber": 1,
  "AcquisitionTime": "16:36:26.552500",
  "BandwidthPerPixelPhaseEncode": 17.17,
  "BaseResolution": 104,
  "BodyPartExamined": "BRAIN",
  "CoilCombinationMethod": "Sum of Squares",
  "ConsistencyInfo": "N4_VE11C_LATEST_20160120",
  "ConversionSoftware": "dcm2niix",
  "ConversionSoftwareVersion": "v1.0.20211006",
  "DerivedVendorReportedEchoSpacing": 0.000560011,
  "DeviceSerialNumber": "167006",
  "DwellTime": 2.1e-06,
  "EchoTime": 0.037,
  "EchoTime1": 0.037,
  "EchoTime2": 0.001,
  "EchoTrainLength": 104,
  "EffectiveEchoSpacing": 0.000560011,
  "FlipAngle": 52,
  "HeudiconvVersion": "0.10.0",
  "ImageComments": "Unaliased MB4/PE3/LB",
  "ImageOrientationPatientDICOM": [0.999796, -0.0104117, 0.017316, 0.0162297, 0.924306, -0.381308],
  "ImageOrientationText": "Tra>Cor(-22.4)>Sag(0.7)",
  "ImageType": [
    "ORIGINAL",
    "PRIMARY",
    "P",
    "MB",
    "ND",
    "MOSAIC",
    "PHASE"
],
  "ImagingFrequency": 123.259,
  "InPlanePhaseEncodingDirectionDICOM": "COL",
  "InstitutionAddress": "Chemin Queen-Mary 4565,Montreal,District,CA,H3W 1W5",
  "InstitutionName": "IUGM",
  "InstitutionalDepartmentName": "Department",
  "MRAcquisitionType": "2D",
  "MagneticFieldStrength": 3,
  "Manufacturer": "Siemens",
  "ManufacturersModelName": "Prisma_fit",
  "MatrixCoilMode": "SENSE",
  "Modality": "MR",
  "MultibandAccelerationFactor": 4,
  "PartialFourier": 1,
  "PatientPosition": "HFS",
  "PercentPhaseFOV": 100,
  "PercentSampling": 100,
  "PhaseEncodingDirection": "j",
  "PhaseEncodingSteps": 104,
  "PhaseResolution": 1,
  "PixelBandwidth": 2290,
  "ProcedureStepDescription": "games^mario",
  "ProtocolName": "func_task-mario_run-01",
  "PulseSequenceDetails": "%CustomerSeq%\\cmrr_mbep2d_bold",
  "ReceiveCoilActiveElements": "HC1-7;NC1,2",
  "ReceiveCoilName": "HeadNeck_64",
  "ReconMatrixPE": 104,
  "RepetitionTime": 1.49,
  "SAR": 0.0577699,
  "ScanOptions": "FS",
  "ScanningSequence": "EP",
  "SequenceName": "epfid2d1_104",
  "SequenceVariant": "SK\\SS",
  "SeriesDescription": "func_task-mario_run-01",
  "SeriesNumber": 11,
  "ShimSetting": [607, -7248, -8841, 332, -10, -337, 30, 16],
  "SliceThickness": 2,
  "SliceTiming": [0, 0.7825, 0.0975, 0.88, 0.195, 0.9775, 0.2925, 1.0775, 0.39, 1.175, 0.49, 1.2725, 0.5875, 1.37, 0.685, 0, 0.7825, 0.0975, 0.88, 0.195, 0.9775, 0.2925, 1.0775, 0.39, 1.175, 0.49, 1.2725, 0.5875, 1.37, 0.685, 0, 0.7825, 0.0975, 0.88, 0.195, 0.9775, 0.2925, 1.0775, 0.39, 1.175, 0.49, 1.2725, 0.5875, 1.37, 0.685, 0, 0.7825, 0.0975, 0.88, 0.195, 0.9775, 0.2925, 1.0775, 0.39, 1.175, 0.49, 1.2725, 0.5875, 1.37, 0.685],
  "SoftwareVersions": "syngo MR E11",
  "SpacingBetweenSlices": 2,
  "StationName": "MRC35049",
  "TaskName": "mario",
  "TotalReadoutTime": 0.0576811,
  "TxRefAmp": 282.819,
  "WipMemBlock": "082237e2-6263-4e99-9e16-7775a503d605||Sequence: R016 ve11c/master r/e634e98; Dec 19 2017 11:00:25 by eja",
  "dcmmeta_affine": [
    [-1.9995917081832886, 0.03245933726429939, 0.024070460349321365, 102.07971954345703],
    [0.020823456346988678, 1.8486113548278809, -0.7630217671394348, -61.18486022949219],
    [0.03463205695152283, 0.762615442276001, 1.8485718965530396, -70.776611328125],
    [0.0, 0.0, 0.0, 1.0]
],
  "dcmmeta_reorient_transform": [
    [0.0, -1.0, 0.0, 103.0],
    [1.0, 0.0, 0.0, 0.0],
    [0.0, 0.0, 1.0, 0.0],
    [0.0, 0.0, 0.0, 1.0]
],
  "dcmmeta_shape": [104, 104, 60, 481],
  "dcmmeta_slice_dim": 2,
  "dcmmeta_version": 0.6,
  "global": {
    "const": {
      "AcquisitionMatrix": [104, 0, 0, 104],
      "AngioFlag": "N",
      "BitsAllocated": 16,
      "BitsStored": 16,
      "BodyPartExamined": "BRAIN",
      "Columns": 832,
      "EchoNumbers": 1,
      "EchoTime": 37.0,
      "EchoTrainLength": 104,
      "FlipAngle": 52.0,
      "HighBit": 15,
      "ImageOrientationPatient": [0.9997958547058, -0.0104117284585, 0.01731602793967, 0.01622966822777, 0.92430569774518, -0.381307716923],
      "ImagePositionPatient": [-845.0896112131, -794.53692172878, 272.75872592014],
      "ImageType": [
        "ORIGINAL",
        "PRIMARY",
        "P",
        "MB",
        "ND",
        "MOSAIC"
],
      "ImagedNucleus": "1H",
      "ImagingFrequency": 123.258822,
      "InPlanePhaseEncodingDirection": "COL",
      "LargestImagePixelValue": 4095,
      "MRAcquisitionType": "2D",
      "MagneticFieldStrength": 3.0,
      "Manufacturer": "SIEMENS",
      "ManufacturerModelName": "Prisma_fit",
      "Modality": "MR",
      "NumberOfAverages": 1.0,
      "NumberOfPhaseEncodingSteps": 104,
      "PercentPhaseFieldOfView": 100.0,
      "PercentSampling": 100.0,
      "PerformedProcedureStepStartTime": "161010.658000",
      "PhotometricInterpretation": "MONOCHROME2",
      "PixelBandwidth": 2290.0,
      "PixelRepresentation": 0,
      "PixelSpacing": [2.0, 2.0],
      "ProtocolName": "func_task-mario_run-01",
      "RepetitionTime": 1490.0,
      "RescaleIntercept": -4096.0,
      "RescaleSlope": 2.0,
      "RescaleType": "US",
      "Rows": 832,
      "SAR": 0.05776994829916,
      "SamplesPerPixel": 1,
      "ScanOptions": "FS",
      "ScanningSequence": "EP",
      "SequenceName": "epfid2d1_104",
      "SequenceVariant": [
        "SK",
        "SS"
],
      "SeriesDescription": "func_task-mario_run-01",
      "SeriesNumber": 11,
      "SeriesTime": "163742.531000",
      "SliceLocation": -40.84658659363,
      "SliceThickness": 2.0,
      "SmallestImagePixelValue": 0,
      "SoftwareVersions": "syngo MR E11",
      "SpacingBetweenSlices": 1.9999999467399,
      "SpecificCharacterSet": "ISO_IR 100",
      "StudyID": "1",
      "StudyTime": "161010.583000",
      "TransmitCoilName": "Body",
      "VariableFlipAngleFlag": "N",
      "WindowCenterWidthExplanation": "Algo1",
      "dBdt": 0.0},
    "slices": {}
  },
  "time": {
    "samples": {
      "AcquisitionNumber": [1, 2, 3, 4, 5, 6, 7, 8, 9, 10, 11, 12, 13, 14, 15, 16, 17, 18, 19, 20, 21, 22, 23, 24, 25, 26, 27, 28, 29, 30, 31, 32, 33, 34, 35, 36, 37, 38, 39, 40, 41, 42, 43, 44, 45, 46, 47, 48, 49, 50, 51, 52, 53, 54, 55, 56, 57, 58, 59, 60, 61, 62, 63, 64, 65, 66, 67, 68, 69, 70, 71, 72, 73, 74, 75, 76, 77, 78, 79, 80, 81, 82, 83, 84, 85, 86, 87, 88, 89, 90, 91, 92, 93, 94, 95, 96, 97, 98, 99, 100, 101, 102, 103, 104, 105, 106, 107, 108, 109, 110, 111, 112, 113, 114, 115, 116, 117, 118, 119, 120, 121, 122, 123, 124, 125, 126, 127, 128, 129, 130, 131, 132, 133, 134, 135, 136, 137, 138, 139, 140, 141, 142, 143, 144, 145, 146, 147, 148, 149, 150, 151, 152, 153, 154, 155, 156, 157, 158, 159, 160, 161, 162, 163, 164, 165, 166, 167, 168, 169, 170, 171, 172, 173, 174, 175, 176, 177, 178, 179, 180, 181, 182, 183, 184, 185, 186, 187, 188, 189, 190, 191, 192, 193, 194, 195, 196, 197, 198, 199, 200, 201, 202, 203, 204, 205, 206, 207, 208, 209, 210, 211, 212, 213, 214, 215, 216, 217, 218, 219, 220, 221, 222, 223, 224, 225, 226, 227, 228, 229, 230, 231, 232, 233, 234, 235, 236, 237, 238, 239, 240, 241, 242, 243, 244, 245, 246, 247, 248, 249, 250, 251, 252, 253, 254, 255, 256, 257, 258, 259, 260, 261, 262, 263, 264, 265, 266, 267, 268, 269, 270, 271, 272, 273, 274, 275, 276, 277, 278, 279, 280, 281, 282, 283, 284, 285, 286, 287, 288, 289, 290, 291, 292, 293, 294, 295, 296, 297, 298, 299, 300, 301, 302, 303, 304, 305, 306, 307, 308, 309, 310, 311, 312, 313, 314, 315, 316, 317, 318, 319, 320, 321, 322, 323, 324, 325, 326, 327, 328, 329, 330, 331, 332, 333, 334, 335, 336, 337, 338, 339, 340, 341, 342, 343, 344, 345, 346, 347, 348, 349, 350, 351, 352, 353, 354, 355, 356, 357, 358, 359, 360, 361, 362, 363, 364, 365, 366, 367, 368, 369, 370, 371, 372, 373, 374, 375, 376, 377, 378, 379, 380, 381, 382, 383, 384, 385, 386, 387, 388, 389, 390, 391, 392, 393, 394, 395, 396, 397, 398, 399, 400, 401, 402, 403, 404, 405, 406, 407, 408, 409, 410, 411, 412, 413, 414, 415, 416, 417, 418, 419, 420, 421, 422, 423, 424, 425, 426, 427, 428, 429, 430, 431, 432, 433, 434, 435, 436, 437, 438, 439, 440, 441, 442, 443, 444, 445, 446, 447, 448, 449, 450, 451, 452, 453, 454, 455, 456, 457, 458, 459, 460, 461, 462, 463, 464, 465, 466, 467, 468, 469, 470, 471, 472, 473, 474, 475, 476, 477, 478, 479, 480, 481],
      "AcquisitionTime": ["163626.552500", "163628.042500", "163629.532500", "163631.022500", "163632.512500", "163634.002500", "163635.492500", "163636.982500", "163638.472500", "163639.962500", "163641.452500", "163642.942500", "163644.432500", "163645.922500", "163647.412500", "163648.902500", "163650.392500", "163651.882500", "163653.372500", "163654.862500", "163656.352500", "163657.842500", "163659.332500", "163700.822500", "163702.312500", "163703.802500", "163705.292500", "163706.782500", "163708.272500", "163709.762500", "163711.252500", "163712.742500", "163714.232500", "163715.722500", "163717.212500", "163718.702500", "163720.192500", "163721.682500", "163723.172500", "163724.662500", "163726.152500", "163727.642500", "163729.132500", "163730.622500", "163732.112500", "163733.602500", "163735.092500", "163736.582500", "163738.072500", "163739.562500", "163741.052500", "163742.542500", "163744.032500", "163745.522500", "163747.012500", "163748.502500", "163749.992500", "163751.482500", "163752.972500", "163754.462500", "163755.952500", "163757.442500", "163758.932500", "163800.422500", "163801.912500", "163803.402500", "163804.892500", "163806.382500", "163807.872500", "163809.362500", "163810.852500", "163812.342500", "163813.832500", "163815.322500", "163816.812500", "163818.302500", "163819.792500", "163821.282500", "163822.772500", "163824.262500", "163825.752500", "163827.242500", "163828.732500", "163830.222500", "163831.712500", "163833.202500", "163834.692500", "163836.182500", "163837.672500", "163839.162500", "163840.652500", "163842.142500", "163843.632500", "163845.122500", "163846.612500", "163848.102500", "163849.592500", "163851.082500", "163852.572500", "163854.062500", "163855.552500", "163857.042500", "163858.532500", "163900.022500", "163901.512500", "163903.002500", "163904.492500", "163905.982500", "163907.472500", "163908.962500", "163910.452500", "163911.942500", "163913.432500", "163914.922500", "163916.412500", "163917.902500", "163919.392500", "163920.882500", "163922.372500", "163923.862500", "163925.352500", "163926.842500", "163928.332500", "163929.822500", "163931.312500", "163932.802500", "163934.292500", "163935.782500", "163937.272500", "163938.762500", "163940.252500", "163941.742500", "163943.232500", "163944.722500", "163946.212500", "163947.702500", "163949.192500", "163950.682500", "163952.172500", "163953.662500", "163955.152500", "163956.642500", "163958.132500", "163959.622500", "164001.112500", "164002.602500", "164004.092500", "164005.582500", "164007.072500", "164008.562500", "164010.052500", "164011.542500", "164013.032500", "164014.522500", "164016.012500", "164017.502500", "164018.992500", "164020.482500", "164021.972500", "164023.462500", "164024.952500", "164026.442500", "164027.932500", "164029.422500", "164030.912500", "164032.402500", "164033.892500", "164035.382500", "164036.872500", "164038.362500", "164039.852500", "164041.342500", "164042.832500", "164044.322500", "164045.812500", "164047.302500", "164048.792500", "164050.282500", "164051.772500", "164053.262500", "164054.752500", "164056.242500", "164057.732500", "164059.222500", "164100.712500", "164102.202500", "164103.692500", "164105.182500", "164106.672500", "164108.162500", "164109.652500", "164111.142500", "164112.632500", "164114.122500", "164115.612500", "164117.102500", "164118.592500", "164120.082500", "164121.572500", "164123.062500", "164124.552500", "164126.042500", "164127.532500", "164129.022500", "164130.512500", "164132.002500", "164133.492500", "164134.982500", "164136.472500", "164137.962500", "164139.452500", "164140.942500", "164142.432500", "164143.922500", "164145.412500", "164146.902500", "164148.392500", "164149.882500", "164151.372500", "164152.862500", "164154.352500", "164155.842500", "164157.332500", "164158.822500", "164200.312500", "164201.802500", "164203.292500", "164204.782500", "164206.272500", "164207.762500", "164209.252500", "164210.742500", "164212.232500", "164213.722500", "164215.212500", "164216.702500", "164218.192500", "164219.682500", "164221.172500", "164222.662500", "164224.152500", "164225.642500", "164227.132500", "164228.622500", "164230.112500", "164231.602500", "164233.092500", "164234.582500", "164236.072500", "164237.562500", "164239.052500", "164240.542500", "164242.032500", "164243.522500", "164245.012500", "164246.502500", "164247.992500", "164249.482500", "164250.972500", "164252.462500", "164253.952500", "164255.442500", "164256.932500", "164258.422500", "164259.912500", "164301.402500", "164302.892500", "164304.382500", "164305.872500", "164307.362500", "164308.852500", "164310.342500", "164311.832500", "164313.322500", "164314.812500", "164316.302500", "164317.792500", "164319.282500", "164320.772500", "164322.262500", "164323.752500", "164325.242500", "164326.732500", "164328.222500", "164329.712500", "164331.202500", "164332.692500", "164334.182500", "164335.672500", "164337.162500", "164338.652500", "164340.142500", "164341.632500", "164343.122500", "164344.612500", "164346.102500", "164347.592500", "164349.082500", "164350.572500", "164352.062500", "164353.552500", "164355.042500", "164356.532500", "164358.022500", "164359.512500", "164401.002500", "164402.492500", "164403.982500", "164405.472500", "164406.962500", "164408.452500", "164409.942500", "164411.432500", "164412.922500", "164414.412500", "164415.902500", "164417.392500", "164418.882500", "164420.372500", "164421.862500", "164423.352500", "164424.842500", "164426.332500", "164427.822500", "164429.312500", "164430.802500", "164432.292500", "164433.782500", "164435.272500", "164436.762500", "164438.252500", "164439.742500", "164441.232500", "164442.722500", "164444.212500", "164445.702500", "164447.192500", "164448.682500", "164450.172500", "164451.662500", "164453.152500", "164454.642500", "164456.132500", "164457.622500", "164459.112500", "164500.602500", "164502.092500", "164503.582500", "164505.072500", "164506.562500", "164508.052500", "164509.542500", "164511.032500", "164512.522500", "164514.012500", "164515.502500", "164516.992500", "164518.482500", "164519.972500", "164521.462500", "164522.952500", "164524.442500", "164525.932500", "164527.422500", "164528.912500", "164530.402500", "164531.892500", "164533.382500", "164534.872500", "164536.362500", "164537.852500", "164539.342500", "164540.832500", "164542.322500", "164543.812500", "164545.302500", "164546.792500", "164548.282500", "164549.772500", "164551.262500", "164552.752500", "164554.242500", "164555.732500", "164557.222500", "164558.712500", "164600.202500", "164601.692500", "164603.182500", "164604.672500", "164606.162500", "164607.652500", "164609.142500", "164610.632500", "164612.122500", "164613.612500", "164615.102500", "164616.592500", "164618.082500", "164619.572500", "164621.062500", "164622.552500", "164624.042500", "164625.532500", "164627.022500", "164628.512500", "164630.002500", "164631.492500", "164632.982500", "164634.472500", "164635.962500", "164637.452500", "164638.942500", "164640.432500", "164641.922500", "164643.412500", "164644.902500", "164646.392500", "164647.882500", "164649.372500", "164650.862500", "164652.352500", "164653.842500", "164655.332500", "164656.822500", "164658.312500", "164659.802500", "164701.292500", "164702.782500", "164704.272500", "164705.762500", "164707.252500", "164708.742500", "164710.232500", "164711.722500", "164713.212500", "164714.702500", "164716.192500", "164717.682500", "164719.172500", "164720.662500", "164722.152500", "164723.642500", "164725.132500", "164726.622500", "164728.112500", "164729.602500", "164731.092500", "164732.582500", "164734.072500", "164735.562500", "164737.052500", "164738.542500", "164740.032500", "164741.522500", "164743.012500", "164744.502500", "164745.992500", "164747.482500", "164748.972500", "164750.462500", "164751.952500", "164753.442500", "164754.932500", "164756.422500", "164757.912500", "164759.402500", "164800.892500", "164802.382500", "164803.872500", "164805.362500", "164806.852500", "164808.342500", "164809.832500", "164811.322500", "164812.812500", "164814.302500", "164815.792500", "164817.282500", "164818.772500", "164820.262500", "164821.752500"],
      "ContentTime": ["163742.534000", "163742.536000", "163742.544000", "163742.547000", "163742.549000", "163742.552000", "163742.554000", "163742.556000", "163742.559000", "163742.561000", "163742.564000", "163742.566000", "163742.569000", "163742.571000", "163742.574000", "163742.576000", "163742.579000", "163742.581000", "163742.584000", "163742.586000", "163742.588000", "163802.479000", "163802.482000", "163802.484000", "163802.487000", "163802.489000", "163802.492000", "163802.494000", "163802.497000", "163802.499000", "163802.502000", "163802.504000", "163802.506000", "163802.509000", "163802.511000", "163802.514000", "163802.516000", "163802.519000", "163802.521000", "163802.524000", "163822.501000", "163822.504000", "163822.507000", "163822.509000", "163822.512000", "163822.514000", "163822.517000", "163822.519000", "163822.521000", "163822.524000", "163822.526000", "163822.529000", "163822.531000", "163822.534000", "163822.536000", "163822.539000", "163822.541000", "163822.544000", "163822.546000", "163822.548000", "163822.551000", "163842.500000", "163842.503000", "163842.506000", "163842.508000", "163842.511000", "163842.513000", "163842.516000", "163842.518000", "163842.521000", "163842.523000", "163842.526000", "163842.528000", "163842.530000", "163842.533000", "163842.536000", "163842.538000", "163842.541000", "163842.543000", "163842.546000", "163842.548000", "163902.493000", "163902.496000", "163902.499000", "163902.501000", "163902.504000", "163902.506000", "163902.509000", "163902.511000", "163902.514000", "163902.516000", "163902.519000", "163902.521000", "163902.524000", "163902.526000", "163902.529000", "163902.531000", "163902.533000", "163902.536000", "163902.538000", "163902.541000", "163942.536000", "163942.539000", "163942.541000", "163942.544000", "163942.546000", "163942.549000", "163942.551000", "163942.554000", "163942.556000", "163942.559000", "163942.561000", "163942.563000", "163942.566000", "163942.569000", "163942.571000", "163942.574000", "163942.576000", "163942.579000", "163942.581000", "163942.584000", "163942.586000", "163942.589000", "163942.591000", "163942.594000", "163942.596000", "163942.599000", "163942.601000", "163942.604000", "163942.606000", "163942.609000", "164022.521000", "164022.524000", "164022.526000", "164022.529000", "164022.532000", "164022.534000", "164022.536000", "164022.539000", "164022.541000", "164022.544000", "164022.546000", "164022.549000", "164022.551000", "164022.554000", "164022.556000", "164022.559000", "164022.561000", "164022.563000", "164022.566000", "164022.568000", "164022.571000", "164022.573000", "164022.576000", "164022.579000", "164022.581000", "164022.584000", "164022.586000", "164102.517000", "164102.520000", "164102.522000", "164102.525000", "164102.527000", "164102.530000", "164102.532000", "164102.535000", "164102.537000", "164102.539000", "164102.542000", "164102.544000", "164102.547000", "164102.549000", "164102.552000", "164102.554000", "164102.557000", "164102.559000", "164102.562000", "164102.564000", "164102.566000", "164102.569000", "164102.571000", "164102.574000", "164102.576000", "164102.579000", "164142.559000", "164142.562000", "164142.564000", "164142.567000", "164142.569000", "164142.572000", "164142.574000", "164142.577000", "164142.579000", "164142.582000", "164142.584000", "164142.587000", "164142.589000", "164142.592000", "164142.594000", "164142.597000", "164142.599000", "164142.601000", "164142.604000", "164142.606000", "164142.609000", "164142.611000", "164142.614000", "164142.616000", "164142.619000", "164142.621000", "164142.624000", "164222.522000", "164222.525000", "164222.527000", "164222.529000", "164222.532000", "164222.534000", "164222.537000", "164222.539000", "164222.542000", "164222.544000", "164222.547000", "164222.549000", "164222.552000", "164222.554000", "164222.556000", "164222.559000", "164222.561000", "164222.564000", "164222.566000", "164222.569000", "164222.571000", "164222.574000", "164222.576000", "164222.579000", "164222.581000", "164222.584000", "164222.586000", "164302.969000", "164302.972000", "164302.975000", "164302.978000", "164302.980000", "164302.982000", "164302.985000", "164302.987000", "164302.990000", "164302.992000", "164302.995000", "164302.997000", "164303.001000", "164303.003000", "164303.006000", "164303.008000", "164303.011000", "164303.013000", "164303.016000", "164303.018000", "164303.021000", "164303.023000", "164303.026000", "164303.028000", "164303.031000", "164303.033000", "164303.036000", "164342.525000", "164342.528000", "164342.530000", "164342.533000", "164342.535000", "164342.538000", "164342.540000", "164342.543000", "164342.545000", "164342.548000", "164342.550000", "164342.553000", "164342.555000", "164342.557000", "164342.560000", "164342.562000", "164342.565000", "164342.567000", "164342.570000", "164342.572000", "164342.575000", "164342.577000", "164342.580000", "164342.582000", "164342.585000", "164342.587000", "164342.589000", "164422.510000", "164422.513000", "164422.515000", "164422.518000", "164422.520000", "164422.523000", "164422.525000", "164422.528000", "164422.530000", "164422.533000", "164422.535000", "164422.538000", "164422.540000", "164422.543000", "164422.545000", "164422.548000", "164422.550000", "164422.553000", "164422.555000", "164422.558000", "164422.560000", "164422.563000", "164422.565000", "164422.567000", "164422.570000", "164422.573000", "164422.575000", "164502.524000", "164502.527000", "164502.529000", "164502.532000", "164502.534000", "164502.537000", "164502.539000", "164502.542000", "164502.544000", "164502.547000", "164502.549000", "164502.552000", "164502.554000", "164502.557000", "164502.559000", "164502.562000", "164502.564000", "164502.566000", "164502.569000", "164502.572000", "164502.574000", "164502.576000", "164502.579000", "164502.581000", "164502.584000", "164502.586000", "164502.589000", "164542.515000", "164542.518000", "164542.520000", "164542.523000", "164542.526000", "164542.528000", "164542.531000", "164542.533000", "164542.536000", "164542.538000", "164542.542000", "164542.545000", "164542.549000", "164542.552000", "164542.555000", "164542.558000", "164542.560000", "164542.562000", "164542.565000", "164542.567000", "164542.570000", "164542.572000", "164542.575000", "164542.577000", "164542.580000", "164542.582000", "164622.540000", "164622.543000", "164622.546000", "164622.548000", "164622.551000", "164622.553000", "164622.556000", "164622.558000", "164622.561000", "164622.563000", "164622.566000", "164622.568000", "164622.571000", "164622.573000", "164622.576000", "164622.578000", "164622.581000", "164622.583000", "164622.586000", "164622.588000", "164622.591000", "164622.593000", "164622.595000", "164622.598000", "164622.600000", "164622.603000", "164622.605000", "164702.521000", "164702.524000", "164702.526000", "164702.529000", "164702.531000", "164702.534000", "164702.536000", "164702.538000", "164702.541000", "164702.543000", "164702.546000", "164702.548000", "164702.551000", "164702.553000", "164702.556000", "164702.558000", "164702.561000", "164702.563000", "164702.566000", "164702.568000", "164702.571000", "164702.573000", "164702.576000", "164702.578000", "164702.580000", "164702.583000", "164702.585000", "164742.512000", "164742.515000", "164742.517000", "164742.520000", "164742.522000", "164742.525000", "164742.527000", "164742.529000", "164742.532000", "164742.534000", "164742.537000", "164742.539000", "164742.542000", "164742.544000", "164742.547000", "164742.549000", "164742.552000", "164742.554000", "164742.557000", "164742.559000", "164742.561000", "164742.564000", "164742.566000", "164742.569000", "164742.571000", "164742.574000", "164742.576000", "164802.460000", "164802.462000", "164802.465000", "164802.467000", "164802.470000", "164802.472000", "164802.475000", "164802.477000", "164802.480000", "164802.482000", "164802.485000", "164802.487000", "164802.490000", "164824.643000", "164824.646000", "164824.648000", "164824.651000", "164824.653000", "164824.656000", "164824.658000", "164824.660000", "164824.663000", "164824.665000", "164824.668000", "164824.670000", "164824.673000", "164824.675000", "164824.678000"],
