{
  "AcquisitionMatrixPE": 104,
  "AcquisitionNumber": 1,
  "AcquisitionTime": "16:36:26.552500",
  "BandwidthPerPixelPhaseEncode": 17.17,
  "BaseResolution": 104,
  "BodyPartExamined": "BRAIN",
  "CoilCombinationMethod": "Sum of Squares",
  "ConsistencyInfo": "N4_VE11C_LATEST_20160120",
  "ConversionSoftware": "dcm2niix",
  "ConversionSoftwareVersion": "v1.0.20211006",
  "DerivedVendorReportedEchoSpacing": 0.000560011,
  "DeviceSerialNumber": "167006",
  "DwellTime": 2.1e-06,
  "EchoTime": 0.037,
  "EchoTrainLength": 104,
  "EffectiveEchoSpacing": 0.000560011,
  "FlipAngle": 52,
  "HeudiconvVersion": "0.10.0",
  "ImageComments": "Unaliased MB4/PE3/LB",
  "ImageOrientationPatientDICOM": [0.999796, -0.0104117, 0.017316, 0.0162297, 0.924306, -0.381308],
  "ImageOrientationText": "Tra>Cor(-22.4)>Sag(0.7)",
  "ImageType": [
    "ORIGINAL",
    "PRIMARY",
    "M",
    "MB",
    "ND",
    "MOSAIC"
],
  "ImagingFrequency": 123.259,
  "InPlanePhaseEncodingDirectionDICOM": "COL",
  "InstitutionAddress": "Chemin Queen-Mary 4565,Montreal,District,CA,H3W 1W5",
  "InstitutionName": "IUGM",
  "InstitutionalDepartmentName": "Department",
  "MRAcquisitionType": "2D",
  "MagneticFieldStrength": 3,
  "Manufacturer": "Siemens",
  "ManufacturersModelName": "Prisma_fit",
  "MatrixCoilMode": "SENSE",
  "Modality": "MR",
  "MultibandAccelerationFactor": 4,
  "PartialFourier": 1,
  "PatientPosition": "HFS",
  "PercentPhaseFOV": 100,
  "PercentSampling": 100,
  "PhaseEncodingDirection": "j",
  "PhaseEncodingSteps": 104,
  "PhaseResolution": 1,
  "PixelBandwidth": 2290,
  "ProcedureStepDescription": "games^mario",
  "ProtocolName": "func_task-mario_run-01",
  "PulseSequenceDetails": "%CustomerSeq%\\cmrr_mbep2d_bold",
  "ReceiveCoilActiveElements": "HC1-7;NC1,2",
  "ReceiveCoilName": "HeadNeck_64",
  "ReconMatrixPE": 104,
  "RepetitionTime": 1.49,
  "SAR": 0.0577699,
  "ScanOptions": "FS",
  "ScanningSequence": "EP",
  "SequenceName": "epfid2d1_104",
  "SequenceVariant": "SK\\SS",
  "SeriesDescription": "func_task-mario_run-01",
  "SeriesNumber": 10,
  "ShimSetting": [607, -7248, -8841, 332, -10, -337, 30, 16],
  "SliceThickness": 2,
  "SliceTiming": [0, 0.7825, 0.0975, 0.88, 0.195, 0.9775, 0.2925, 1.0775, 0.39, 1.175, 0.49, 1.2725, 0.5875, 1.37, 0.685, 0, 0.7825, 0.0975, 0.88, 0.195, 0.9775, 0.2925, 1.0775, 0.39, 1.175, 0.49, 1.2725, 0.5875, 1.37, 0.685, 0, 0.7825, 0.0975, 0.88, 0.195, 0.9775, 0.2925, 1.0775, 0.39, 1.175, 0.49, 1.2725, 0.5875, 1.37, 0.685, 0, 0.7825, 0.0975, 0.88, 0.195, 0.9775, 0.2925, 1.0775, 0.39, 1.175, 0.49, 1.2725, 0.5875, 1.37, 0.685],
  "SoftwareVersions": "syngo MR E11",
  "SpacingBetweenSlices": 2,
  "StationName": "MRC35049",
  "TaskName": "mario",
  "TotalReadoutTime": 0.0576811,
  "TxRefAmp": 282.819,
  "WipMemBlock": "082237e2-6263-4e99-9e16-7775a503d605||Sequence: R016 ve11c/master r/e634e98; Dec 19 2017 11:00:25 by eja",
  "dcmmeta_affine": [
    [-1.9995917081832886, 0.03245933726429939, 0.024070460349321365, 102.07971954345703],
    [0.020823456346988678, 1.8486113548278809, -0.7630217671394348, -61.18486022949219],
    [0.03463205695152283, 0.762615442276001, 1.8485718965530396, -70.776611328125],
    [0.0, 0.0, 0.0, 1.0]
],
  "dcmmeta_reorient_transform": [
    [0.0, -1.0, 0.0, 103.0],
    [1.0, 0.0, 0.0, 0.0],
    [0.0, 0.0, 1.0, 0.0],
    [0.0, 0.0, 0.0, 1.0]
],
  "dcmmeta_shape": [104, 104, 60, 481],
  "dcmmeta_slice_dim": 2,
  "dcmmeta_version": 0.6,
  "global": {
    "const": {
      "AcquisitionMatrix": [104, 0, 0, 104],
      "AngioFlag": "N",
      "BitsAllocated": 16,
      "BitsStored": 16,
      "BodyPartExamined": "BRAIN",
      "Columns": 832,
      "EchoNumbers": 1,
      "EchoTime": 37.0,
      "EchoTrainLength": 104,
      "FlipAngle": 52.0,
      "HighBit": 15,
      "ImageOrientationPatient": [0.9997958547058, -0.0104117284585, 0.01731602793967, 0.01622966822777, 0.92430569774518, -0.381307716923],
      "ImagePositionPatient": [-845.0896112131, -794.53692172878, 272.75872592014],
      "ImageType": [
        "ORIGINAL",
        "PRIMARY",
        "M",
        "MB",
        "ND",
        "MOSAIC"
],
      "ImagedNucleus": "1H",
      "ImagingFrequency": 123.258822,
      "InPlanePhaseEncodingDirection": "COL",
      "MRAcquisitionType": "2D",
      "MagneticFieldStrength": 3.0,
      "Manufacturer": "SIEMENS",
      "ManufacturerModelName": "Prisma_fit",
      "Modality": "MR",
      "NumberOfAverages": 1.0,
      "NumberOfPhaseEncodingSteps": 104,
      "PercentPhaseFieldOfView": 100.0,
      "PercentSampling": 100.0,
      "PerformedProcedureStepStartTime": "161010.658000",
      "PhotometricInterpretation": "MONOCHROME2",
      "PixelBandwidth": 2290.0,
      "PixelRepresentation": 0,
      "PixelSpacing": [2.0, 2.0],
      "ProtocolName": "func_task-mario_run-01",
      "RepetitionTime": 1490.0,
      "Rows": 832,
      "SAR": 0.05776994829916,
      "SamplesPerPixel": 1,
      "ScanOptions": "FS",
      "ScanningSequence": "EP",
      "SequenceName": "epfid2d1_104",
      "SequenceVariant": [
        "SK",
        "SS"
],
      "SeriesDescription": "func_task-mario_run-01",
      "SeriesNumber": 10,
      "SeriesTime": "163742.421000",
      "SliceLocation": -40.84658659363,
      "SliceThickness": 2.0,
      "SmallestImagePixelValue": 0,
      "SoftwareVersions": "syngo MR E11",
      "SpacingBetweenSlices": 1.9999999467399,
      "SpecificCharacterSet": "ISO_IR 100",
      "StudyID": "1",
      "StudyTime": "161010.583000",
      "TransmitCoilName": "Body",
      "VariableFlipAngleFlag": "N",
      "WindowCenter": 9481.0,
      "WindowCenterWidthExplanation": "WINDOW1",
      "WindowWidth": 16598.0,
      "dBdt": 0.0},
    "slices": {}
  },
  "time": {
    "samples": {
      "AcquisitionNumber": [1, 2, 3, 4, 5, 6, 7, 8, 9, 10, 11, 12, 13, 14, 15, 16, 17, 18, 19, 20, 21, 22, 23, 24, 25, 26, 27, 28, 29, 30, 31, 32, 33, 34, 35, 36, 37, 38, 39, 40, 41, 42, 43, 44, 45, 46, 47, 48, 49, 50, 51, 52, 53, 54, 55, 56, 57, 58, 59, 60, 61, 62, 63, 64, 65, 66, 67, 68, 69, 70, 71, 72, 73, 74, 75, 76, 77, 78, 79, 80, 81, 82, 83, 84, 85, 86, 87, 88, 89, 90, 91, 92, 93, 94, 95, 96, 97, 98, 99, 100, 101, 102, 103, 104, 105, 106, 107, 108, 109, 110, 111, 112, 113, 114, 115, 116, 117, 118, 119, 120, 121, 122, 123, 124, 125, 126, 127, 128, 129, 130, 131, 132, 133, 134, 135, 136, 137, 138, 139, 140, 141, 142, 143, 144, 145, 146, 147, 148, 149, 150, 151, 152, 153, 154, 155, 156, 157, 158, 159, 160, 161, 162, 163, 164, 165, 166, 167, 168, 169, 170, 171, 172, 173, 174, 175, 176, 177, 178, 179, 180, 181, 182, 183, 184, 185, 186, 187, 188, 189, 190, 191, 192, 193, 194, 195, 196, 197, 198, 199, 200, 201, 202, 203, 204, 205, 206, 207, 208, 209, 210, 211, 212, 213, 214, 215, 216, 217, 218, 219, 220, 221, 222, 223, 224, 225, 226, 227, 228, 229, 230, 231, 232, 233, 234, 235, 236, 237, 238, 239, 240, 241, 242, 243, 244, 245, 246, 247, 248, 249, 250, 251, 252, 253, 254, 255, 256, 257, 258, 259, 260, 261, 262, 263, 264, 265, 266, 267, 268, 269, 270, 271, 272, 273, 274, 275, 276, 277, 278, 279, 280, 281, 282, 283, 284, 285, 286, 287, 288, 289, 290, 291, 292, 293, 294, 295, 296, 297, 298, 299, 300, 301, 302, 303, 304, 305, 306, 307, 308, 309, 310, 311, 312, 313, 314, 315, 316, 317, 318, 319, 320, 321, 322, 323, 324, 325, 326, 327, 328, 329, 330, 331, 332, 333, 334, 335, 336, 337, 338, 339, 340, 341, 342, 343, 344, 345, 346, 347, 348, 349, 350, 351, 352, 353, 354, 355, 356, 357, 358, 359, 360, 361, 362, 363, 364, 365, 366, 367, 368, 369, 370, 371, 372, 373, 374, 375, 376, 377, 378, 379, 380, 381, 382, 383, 384, 385, 386, 387, 388, 389, 390, 391, 392, 393, 394, 395, 396, 397, 398, 399, 400, 401, 402, 403, 404, 405, 406, 407, 408, 409, 410, 411, 412, 413, 414, 415, 416, 417, 418, 419, 420, 421, 422, 423, 424, 425, 426, 427, 428, 429, 430, 431, 432, 433, 434, 435, 436, 437, 438, 439, 440, 441, 442, 443, 444, 445, 446, 447, 448, 449, 450, 451, 452, 453, 454, 455, 456, 457, 458, 459, 460, 461, 462, 463, 464, 465, 466, 467, 468, 469, 470, 471, 472, 473, 474, 475, 476, 477, 478, 479, 480, 481],
      "AcquisitionTime": ["163626.552500", "163628.042500", "163629.532500", "163631.022500", "163632.512500", "163634.002500", "163635.492500", "163636.982500", "163638.472500", "163639.962500", "163641.452500", "163642.942500", "163644.432500", "163645.922500", "163647.412500", "163648.902500", "163650.392500", "163651.882500", "163653.372500", "163654.862500", "163656.352500", "163657.842500", "163659.332500", "163700.822500", "163702.312500", "163703.802500", "163705.292500", "163706.782500", "163708.272500", "163709.762500", "163711.252500", "163712.742500", "163714.232500", "163715.722500", "163717.212500", "163718.702500", "163720.192500", "163721.682500", "163723.172500", "163724.662500", "163726.152500", "163727.642500", "163729.132500", "163730.622500", "163732.112500", "163733.602500", "163735.092500", "163736.582500", "163738.072500", "163739.562500", "163741.052500", "163742.542500", "163744.032500", "163745.522500", "163747.012500", "163748.502500", "163749.992500", "163751.482500", "163752.972500", "163754.462500", "163755.952500", "163757.442500", "163758.932500", "163800.422500", "163801.912500", "163803.402500", "163804.892500", "163806.382500", "163807.872500", "163809.362500", "163810.852500", "163812.342500", "163813.832500", "163815.322500", "163816.812500", "163818.302500", "163819.792500", "163821.282500", "163822.772500", "163824.262500", "163825.752500", "163827.242500", "163828.732500", "163830.222500", "163831.712500", "163833.202500", "163834.692500", "163836.182500", "163837.672500", "163839.162500", "163840.652500", "163842.142500", "163843.632500", "163845.122500", "163846.612500", "163848.102500", "163849.592500", "163851.082500", "163852.572500", "163854.062500", "163855.552500", "163857.042500", "163858.532500", "163900.022500", "163901.512500", "163903.002500", "163904.492500", "163905.982500", "163907.472500", "163908.962500", "163910.452500", "163911.942500", "163913.432500", "163914.922500", "163916.412500", "163917.902500", "163919.392500", "163920.882500", "163922.372500", "163923.862500", "163925.352500", "163926.842500", "163928.332500", "163929.822500", "163931.312500", "163932.802500", "163934.292500", "163935.782500", "163937.272500", "163938.762500", "163940.252500", "163941.742500", "163943.232500", "163944.722500", "163946.212500", "163947.702500", "163949.192500", "163950.682500", "163952.172500", "163953.662500", "163955.152500", "163956.642500", "163958.132500", "163959.622500", "164001.112500", "164002.602500", "164004.092500", "164005.582500", "164007.072500", "164008.562500", "164010.052500", "164011.542500", "164013.032500", "164014.522500", "164016.012500", "164017.502500", "164018.992500", "164020.482500", "164021.972500", "164023.462500", "164024.952500", "164026.442500", "164027.932500", "164029.422500", "164030.912500", "164032.402500", "164033.892500", "164035.382500", "164036.872500", "164038.362500", "164039.852500", "164041.342500", "164042.832500", "164044.322500", "164045.812500", "164047.302500", "164048.792500", "164050.282500", "164051.772500", "164053.262500", "164054.752500", "164056.242500", "164057.732500", "164059.222500", "164100.712500", "164102.202500", "164103.692500", "164105.182500", "164106.672500", "164108.162500", "164109.652500", "164111.142500", "164112.632500", "164114.122500", "164115.612500", "164117.102500", "164118.592500", "164120.082500", "164121.572500", "164123.062500", "164124.552500", "164126.042500", "164127.532500", "164129.022500", "164130.512500", "164132.002500", "164133.492500", "164134.982500", "164136.472500", "164137.962500", "164139.452500", "164140.942500", "164142.432500", "164143.922500", "164145.412500", "164146.902500", "164148.392500", "164149.882500", "164151.372500", "164152.862500", "164154.352500", "164155.842500", "164157.332500", "164158.822500", "164200.312500", "164201.802500", "164203.292500", "164204.782500", "164206.272500", "164207.762500", "164209.252500", "164210.742500", "164212.232500", "164213.722500", "164215.212500", "164216.702500", "164218.192500", "164219.682500", "164221.172500", "164222.662500", "164224.152500", "164225.642500", "164227.132500", "164228.622500", "164230.112500", "164231.602500", "164233.092500", "164234.582500", "164236.072500", "164237.562500", "164239.052500", "164240.542500", "164242.032500", "164243.522500", "164245.012500", "164246.502500", "164247.992500", "164249.482500", "164250.972500", "164252.462500", "164253.952500", "164255.442500", "164256.932500", "164258.422500", "164259.912500", "164301.402500", "164302.892500", "164304.382500", "164305.872500", "164307.362500", "164308.852500", "164310.342500", "164311.832500", "164313.322500", "164314.812500", "164316.302500", "164317.792500", "164319.282500", "164320.772500", "164322.262500", "164323.752500", "164325.242500", "164326.732500", "164328.222500", "164329.712500", "164331.202500", "164332.692500", "164334.182500", "164335.672500", "164337.162500", "164338.652500", "164340.142500", "164341.632500", "164343.122500", "164344.612500", "164346.102500", "164347.592500", "164349.082500", "164350.572500", "164352.062500", "164353.552500", "164355.042500", "164356.532500", "164358.022500", "164359.512500", "164401.002500", "164402.492500", "164403.982500", "164405.472500", "164406.962500", "164408.452500", "164409.942500", "164411.432500", "164412.922500", "164414.412500", "164415.902500", "164417.392500", "164418.882500", "164420.372500", "164421.862500", "164423.352500", "164424.842500", "164426.332500", "164427.822500", "164429.312500", "164430.802500", "164432.292500", "164433.782500", "164435.272500", "164436.762500", "164438.252500", "164439.742500", "164441.232500", "164442.722500", "164444.212500", "164445.702500", "164447.192500", "164448.682500", "164450.172500", "164451.662500", "164453.152500", "164454.642500", "164456.132500", "164457.622500", "164459.112500", "164500.602500", "164502.092500", "164503.582500", "164505.072500", "164506.562500", "164508.052500", "164509.542500", "164511.032500", "164512.522500", "164514.012500", "164515.502500", "164516.992500", "164518.482500", "164519.972500", "164521.462500", "164522.952500", "164524.442500", "164525.932500", "164527.422500", "164528.912500", "164530.402500", "164531.892500", "164533.382500", "164534.872500", "164536.362500", "164537.852500", "164539.342500", "164540.832500", "164542.322500", "164543.812500", "164545.302500", "164546.792500", "164548.282500", "164549.772500", "164551.262500", "164552.752500", "164554.242500", "164555.732500", "164557.222500", "164558.712500", "164600.202500", "164601.692500", "164603.182500", "164604.672500", "164606.162500", "164607.652500", "164609.142500", "164610.632500", "164612.122500", "164613.612500", "164615.102500", "164616.592500", "164618.082500", "164619.572500", "164621.062500", "164622.552500", "164624.042500", "164625.532500", "164627.022500", "164628.512500", "164630.002500", "164631.492500", "164632.982500", "164634.472500", "164635.962500", "164637.452500", "164638.942500", "164640.432500", "164641.922500", "164643.412500", "164644.902500", "164646.392500", "164647.882500", "164649.372500", "164650.862500", "164652.352500", "164653.842500", "164655.332500", "164656.822500", "164658.312500", "164659.802500", "164701.292500", "164702.782500", "164704.272500", "164705.762500", "164707.252500", "164708.742500", "164710.232500", "164711.722500", "164713.212500", "164714.702500", "164716.192500", "164717.682500", "164719.172500", "164720.662500", "164722.152500", "164723.642500", "164725.132500", "164726.622500", "164728.112500", "164729.602500", "164731.092500", "164732.582500", "164734.072500", "164735.562500", "164737.052500", "164738.542500", "164740.032500", "164741.522500", "164743.012500", "164744.502500", "164745.992500", "164747.482500", "164748.972500", "164750.462500", "164751.952500", "164753.442500", "164754.932500", "164756.422500", "164757.912500", "164759.402500", "164800.892500", "164802.382500", "164803.872500", "164805.362500", "164806.852500", "164808.342500", "164809.832500", "164811.322500", "164812.812500", "164814.302500", "164815.792500", "164817.282500", "164818.772500", "164820.262500", "164821.752500"],
      "ContentTime": ["163742.424000", "163742.428000", "163742.431000", "163742.434000", "163742.437000", "163742.441000", "163742.444000", "163742.447000", "163742.450000", "163742.454000", "163742.457000", "163742.460000", "163742.463000", "163742.467000", "163742.476000", "163742.480000", "163742.483000", "163742.486000", "163742.490000", "163742.493000", "163742.496000", "163802.383000", "163802.387000", "163802.390000", "163802.393000", "163802.396000", "163802.400000", "163802.403000", "163802.406000", "163802.409000", "163802.412000", "163802.416000", "163802.419000", "163802.422000", "163802.425000", "163802.429000", "163802.432000", "163802.435000", "163802.438000", "163802.442000", "163822.383000", "163822.387000", "163822.390000", "163822.393000", "163822.396000", "163822.399000", "163822.403000", "163822.406000", "163822.409000", "163822.412000", "163822.416000", "163822.420000", "163822.431000", "163822.434000", "163822.437000", "163822.440000", "163822.444000", "163822.447000", "163822.450000", "163822.453000", "163822.457000", "163842.382000", "163842.386000", "163842.389000", "163842.392000", "163842.396000", "163842.399000", "163842.402000", "163842.406000", "163842.409000", "163842.412000", "163842.415000", "163842.419000", "163842.422000", "163842.425000", "163842.429000", "163842.432000", "163842.435000", "163842.438000", "163842.442000", "163842.445000", "163902.382000", "163902.386000", "163902.389000", "163902.392000", "163902.396000", "163902.399000", "163902.402000", "163902.405000", "163902.409000", "163902.412000", "163902.415000", "163902.419000", "163902.436000", "163902.439000", "163902.443000", "163902.446000", "163902.449000", "163902.452000", "163902.456000", "163902.459000", "163942.382000", "163942.386000", "163942.389000", "163942.392000", "163942.396000", "163942.399000", "163942.402000", "163942.405000", "163942.409000", "163942.412000", "163942.415000", "163942.418000", "163942.422000", "163942.425000", "163942.429000", "163942.432000", "163942.435000", "163942.439000", "163942.442000", "163942.445000", "163942.449000", "163942.452000", "163942.455000", "163942.459000", "163942.462000", "163942.465000", "163942.468000", "163942.472000", "163942.475000", "163942.478000", "164022.383000", "164022.387000", "164022.390000", "164022.393000", "164022.396000", "164022.400000", "164022.403000", "164022.406000", "164022.410000", "164022.413000", "164022.416000", "164022.419000", "164022.423000", "164022.426000", "164022.429000", "164022.432000", "164022.436000", "164022.439000", "164022.442000", "164022.445000", "164022.449000", "164022.452000", "164022.456000", "164022.459000", "164022.462000", "164022.466000", "164022.469000", "164102.382000", "164102.386000", "164102.389000", "164102.392000", "164102.396000", "164102.399000", "164102.403000", "164102.406000", "164102.410000", "164102.413000", "164102.416000", "164102.420000", "164102.423000", "164102.426000", "164102.429000", "164102.433000", "164102.436000", "164102.439000", "164102.443000", "164102.446000", "164102.449000", "164102.452000", "164102.455000", "164102.459000", "164102.462000", "164102.465000", "164142.382000", "164142.386000", "164142.389000", "164142.392000", "164142.396000", "164142.399000", "164142.402000", "164142.405000", "164142.409000", "164142.432000", "164142.435000", "164142.438000", "164142.441000", "164142.445000", "164142.448000", "164142.451000", "164142.454000", "164142.458000", "164142.461000", "164142.464000", "164142.467000", "164142.471000", "164142.474000", "164142.477000", "164142.480000", "164142.484000", "164142.487000", "164222.383000", "164222.387000", "164222.390000", "164222.393000", "164222.396000", "164222.400000", "164222.403000", "164222.406000", "164222.409000", "164222.413000", "164222.416000", "164222.419000", "164222.422000", "164222.426000", "164222.429000", "164222.432000", "164222.435000", "164222.439000", "164222.442000", "164222.445000", "164222.448000", "164222.452000", "164222.455000", "164222.458000", "164222.461000", "164222.464000", "164222.468000", "164302.383000", "164302.387000", "164302.390000", "164302.394000", "164302.397000", "164302.400000", "164302.403000", "164302.406000", "164302.410000", "164302.413000", "164302.416000", "164302.420000", "164302.423000", "164302.426000", "164302.429000", "164302.433000", "164302.436000", "164302.439000", "164302.442000", "164302.446000", "164302.449000", "164302.452000", "164302.455000", "164302.459000", "164302.462000", "164302.465000", "164302.468000", "164342.382000", "164342.386000", "164342.389000", "164342.392000", "164342.395000", "164342.399000", "164342.402000", "164342.405000", "164342.409000", "164342.412000", "164342.415000", "164342.418000", "164342.422000", "164342.425000", "164342.428000", "164342.431000", "164342.435000", "164342.438000", "164342.441000", "164342.444000", "164342.447000", "164342.451000", "164342.454000", "164342.457000", "164342.460000", "164342.464000", "164342.476000", "164422.382000", "164422.386000", "164422.389000", "164422.392000", "164422.396000", "164422.399000", "164422.402000", "164422.405000", "164422.409000", "164422.412000", "164422.415000", "164422.418000", "164422.422000", "164422.425000", "164422.428000", "164422.431000", "164422.435000", "164422.438000", "164422.441000", "164422.445000", "164422.448000", "164422.451000", "164422.454000", "164422.458000", "164422.461000", "164422.464000", "164422.467000", "164502.383000", "164502.387000", "164502.390000", "164502.393000", "164502.397000", "164502.400000", "164502.403000", "164502.406000", "164502.410000", "164502.413000", "164502.416000", "164502.419000", "164502.423000", "164502.426000", "164502.429000", "164502.432000", "164502.436000", "164502.439000", "164502.442000", "164502.445000", "164502.449000", "164502.452000", "164502.455000", "164502.458000", "164502.462000", "164502.465000", "164502.468000", "164542.382000", "164542.386000", "164542.389000", "164542.392000", "164542.395000", "164542.399000", "164542.403000", "164542.406000", "164542.409000", "164542.413000", "164542.416000", "164542.419000", "164542.422000", "164542.426000", "164542.429000", "164542.432000", "164542.435000", "164542.439000", "164542.442000", "164542.445000", "164542.449000", "164542.452000", "164542.456000", "164542.459000", "164542.462000", "164542.466000", "164622.382000", "164622.386000", "164622.389000", "164622.392000", "164622.396000", "164622.399000", "164622.402000", "164622.405000", "164622.424000", "164622.427000", "164622.431000", "164622.434000", "164622.438000", "164622.442000", "164622.445000", "164622.448000", "164622.451000", "164622.455000", "164622.458000", "164622.461000", "164622.464000", "164622.468000", "164622.471000", "164622.474000", "164622.477000", "164622.481000", "164622.484000", "164702.383000", "164702.387000", "164702.390000", "164702.394000", "164702.397000", "164702.400000", "164702.403000", "164702.407000", "164702.410000", "164702.413000", "164702.416000", "164702.421000", "164702.424000", "164702.428000", "164702.431000", "164702.434000", "164702.437000", "164702.441000", "164702.444000", "164702.447000", "164702.450000", "164702.454000", "164702.457000", "164702.460000", "164702.463000", "164702.467000", "164702.470000", "164742.383000", "164742.387000", "164742.390000", "164742.393000", "164742.397000", "164742.400000", "164742.403000", "164742.406000", "164742.410000", "164742.413000", "164742.416000", "164742.419000", "164742.423000", "164742.426000", "164742.429000", "164742.432000", "164742.436000", "164742.439000", "164742.442000", "164742.445000", "164742.449000", "164742.452000", "164742.455000", "164742.458000", "164742.462000", "164742.465000", "164742.468000", "164802.382000", "164802.386000", "164802.389000", "164802.392000", "164802.396000", "164802.399000", "164802.402000", "164802.406000", "164802.409000", "164802.412000", "164802.415000", "164802.419000", "164802.422000", "164824.564000", "164824.567000", "164824.571000", "164824.574000", "164824.578000", "164824.581000", "164824.584000", "164824.587000", "164824.591000", "164824.594000", "164824.597000", "164824.600000", "164824.603000", "164824.607000", "164824.610000"],
