{
  "AcquisitionMatrixPE": 104,
  "AcquisitionNumber": 1,
  "AcquisitionTime": "16:50:55.292500",
  "BandwidthPerPixelPhaseEncode": 17.17,
  "BaseResolution": 104,
  "BodyPartExamined": "BRAIN",
  "CoilCombinationMethod": "Sum of Squares",
  "ConsistencyInfo": "N4_VE11C_LATEST_20160120",
  "ConversionSoftware": "dcm2niix",
  "ConversionSoftwareVersion": "v1.0.20211006",
  "DerivedVendorReportedEchoSpacing": 0.000560011,
  "DeviceSerialNumber": "167006",
  "DwellTime": 2.1e-06,
  "EchoTime": 0.037,
  "EchoTrainLength": 104,
  "EffectiveEchoSpacing": 0.000560011,
  "FlipAngle": 52,
  "HeudiconvVersion": "0.10.0",
  "ImageComments": "Unaliased MB4/PE3/LB",
  "ImageOrientationPatientDICOM": [0.999796, -0.0104117, 0.017316, 0.0162297, 0.924306, -0.381308],
  "ImageOrientationText": "Tra>Cor(-22.4)>Sag(0.7)",
  "ImageType": [
    "ORIGINAL",
    "PRIMARY",
    "M",
    "MB",
    "ND",
    "MOSAIC"
],
  "ImagingFrequency": 123.259,
  "InPlanePhaseEncodingDirectionDICOM": "COL",
  "InstitutionAddress": "Chemin Queen-Mary 4565,Montreal,District,CA,H3W 1W5",
  "InstitutionName": "IUGM",
  "InstitutionalDepartmentName": "Department",
  "MRAcquisitionType": "2D",
  "MagneticFieldStrength": 3,
  "Manufacturer": "Siemens",
  "ManufacturersModelName": "Prisma_fit",
  "MatrixCoilMode": "SENSE",
  "Modality": "MR",
  "MultibandAccelerationFactor": 4,
  "PartialFourier": 1,
  "PatientPosition": "HFS",
  "PercentPhaseFOV": 100,
  "PercentSampling": 100,
  "PhaseEncodingDirection": "j",
  "PhaseEncodingSteps": 104,
  "PhaseResolution": 1,
  "PixelBandwidth": 2290,
  "ProcedureStepDescription": "games^mario",
  "ProtocolName": "func_task-mario_run-02",
  "PulseSequenceDetails": "%CustomerSeq%\\cmrr_mbep2d_bold",
  "ReceiveCoilActiveElements": "HC1-7;NC1,2",
  "ReceiveCoilName": "HeadNeck_64",
  "ReconMatrixPE": 104,
  "RepetitionTime": 1.49,
  "SAR": 0.0577699,
  "ScanOptions": "FS",
  "ScanningSequence": "EP",
  "SequenceName": "epfid2d1_104",
  "SequenceVariant": "SK\\SS",
  "SeriesDescription": "func_task-mario_run-02",
  "SeriesNumber": 13,
  "ShimSetting": [607, -7248, -8841, 332, -10, -337, 30, 16],
  "SliceThickness": 2,
  "SliceTiming": [0, 0.7825, 0.0975, 0.8825, 0.195, 0.98, 0.2925, 1.0775, 0.3925, 1.175, 0.49, 1.2725, 0.5875, 1.3725, 0.685, 0, 0.7825, 0.0975, 0.8825, 0.195, 0.98, 0.2925, 1.0775, 0.3925, 1.175, 0.49, 1.2725, 0.5875, 1.3725, 0.685, 0, 0.7825, 0.0975, 0.8825, 0.195, 0.98, 0.2925, 1.0775, 0.3925, 1.175, 0.49, 1.2725, 0.5875, 1.3725, 0.685, 0, 0.7825, 0.0975, 0.8825, 0.195, 0.98, 0.2925, 1.0775, 0.3925, 1.175, 0.49, 1.2725, 0.5875, 1.3725, 0.685],
  "SoftwareVersions": "syngo MR E11",
  "SpacingBetweenSlices": 2,
  "StationName": "MRC35049",
  "TaskName": "mario",
  "TotalReadoutTime": 0.0576811,
  "TxRefAmp": 282.819,
  "WipMemBlock": "68a1a31e-45ba-4865-85e1-d853dc23a34f||Sequence: R016 ve11c/master r/e634e98; Dec 19 2017 11:00:25 by eja",
  "dcmmeta_affine": [
    [-1.9995917081832886, 0.03245933726429939, 0.024070460349321365, 102.07971954345703],
    [0.020823456346988678, 1.8486113548278809, -0.7630217671394348, -61.18486022949219],
    [0.03463205695152283, 0.762615442276001, 1.8485718965530396, -70.776611328125],
    [0.0, 0.0, 0.0, 1.0]
],
  "dcmmeta_reorient_transform": [
    [0.0, -1.0, 0.0, 103.0],
    [1.0, 0.0, 0.0, 0.0],
    [0.0, 0.0, 1.0, 0.0],
    [0.0, 0.0, 0.0, 1.0]
],
  "dcmmeta_shape": [104, 104, 60, 501],
  "dcmmeta_slice_dim": 2,
  "dcmmeta_version": 0.6,
  "global": {
    "const": {
      "AcquisitionMatrix": [104, 0, 0, 104],
      "AngioFlag": "N",
      "BitsAllocated": 16,
      "BitsStored": 16,
      "BodyPartExamined": "BRAIN",
      "Columns": 832,
      "EchoNumbers": 1,
      "EchoTime": 37.0,
      "EchoTrainLength": 104,
      "FlipAngle": 52.0,
      "HighBit": 15,
      "ImageOrientationPatient": [0.9997958547058, -0.0104117284585, 0.01731602793967, 0.01622966822777, 0.92430569774518, -0.381307716923],
      "ImagePositionPatient": [-845.0896112131, -794.53692172878, 272.75872592014],
      "ImageType": [
        "ORIGINAL",
        "PRIMARY",
        "M",
        "MB",
        "ND",
        "MOSAIC"
],
      "ImagedNucleus": "1H",
      "ImagingFrequency": 123.258832,
      "InPlanePhaseEncodingDirection": "COL",
      "MRAcquisitionType": "2D",
      "MagneticFieldStrength": 3.0,
      "Manufacturer": "SIEMENS",
      "ManufacturerModelName": "Prisma_fit",
      "Modality": "MR",
      "NumberOfAverages": 1.0,
      "NumberOfPhaseEncodingSteps": 104,
      "PercentPhaseFieldOfView": 100.0,
      "PercentSampling": 100.0,
      "PerformedProcedureStepStartTime": "161010.658000",
      "PhotometricInterpretation": "MONOCHROME2",
      "PixelBandwidth": 2290.0,
      "PixelRepresentation": 0,
      "PixelSpacing": [2.0, 2.0],
      "ProtocolName": "func_task-mario_run-02",
      "RepetitionTime": 1490.0,
      "Rows": 832,
      "SAR": 0.05776994829916,
      "SamplesPerPixel": 1,
      "ScanOptions": "FS",
      "ScanningSequence": "EP",
      "SequenceName": "epfid2d1_104",
      "SequenceVariant": [
        "SK",
        "SS"
],
      "SeriesDescription": "func_task-mario_run-02",
      "SeriesNumber": 13,
      "SeriesTime": "165227.707000",
      "SliceLocation": -40.84658659363,
      "SliceThickness": 2.0,
      "SmallestImagePixelValue": 0,
      "SoftwareVersions": "syngo MR E11",
      "SpacingBetweenSlices": 1.9999999467399,
      "SpecificCharacterSet": "ISO_IR 100",
      "StudyID": "1",
      "StudyTime": "161010.583000",
      "TransmitCoilName": "Body",
      "VariableFlipAngleFlag": "N",
      "WindowCenterWidthExplanation": "Algo1",
      "dBdt": 0.0},
    "slices": {}
  },
  "time": {
    "samples": {
      "AcquisitionNumber": [1, 2, 3, 4, 5, 6, 7, 8, 9, 10, 11, 12, 13, 14, 15, 16, 17, 18, 19, 20, 21, 22, 23, 24, 25, 26, 27, 28, 29, 30, 31, 32, 33, 34, 35, 36, 37, 38, 39, 40, 41, 42, 43, 44, 45, 46, 47, 48, 49, 50, 51, 52, 53, 54, 55, 56, 57, 58, 59, 60, 61, 62, 63, 64, 65, 66, 67, 68, 69, 70, 71, 72, 73, 74, 75, 76, 77, 78, 79, 80, 81, 82, 83, 84, 85, 86, 87, 88, 89, 90, 91, 92, 93, 94, 95, 96, 97, 98, 99, 100, 101, 102, 103, 104, 105, 106, 107, 108, 109, 110, 111, 112, 113, 114, 115, 116, 117, 118, 119, 120, 121, 122, 123, 124, 125, 126, 127, 128, 129, 130, 131, 132, 133, 134, 135, 136, 137, 138, 139, 140, 141, 142, 143, 144, 145, 146, 147, 148, 149, 150, 151, 152, 153, 154, 155, 156, 157, 158, 159, 160, 161, 162, 163, 164, 165, 166, 167, 168, 169, 170, 171, 172, 173, 174, 175, 176, 177, 178, 179, 180, 181, 182, 183, 184, 185, 186, 187, 188, 189, 190, 191, 192, 193, 194, 195, 196, 197, 198, 199, 200, 201, 202, 203, 204, 205, 206, 207, 208, 209, 210, 211, 212, 213, 214, 215, 216, 217, 218, 219, 220, 221, 222, 223, 224, 225, 226, 227, 228, 229, 230, 231, 232, 233, 234, 235, 236, 237, 238, 239, 240, 241, 242, 243, 244, 245, 246, 247, 248, 249, 250, 251, 252, 253, 254, 255, 256, 257, 258, 259, 260, 261, 262, 263, 264, 265, 266, 267, 268, 269, 270, 271, 272, 273, 274, 275, 276, 277, 278, 279, 280, 281, 282, 283, 284, 285, 286, 287, 288, 289, 290, 291, 292, 293, 294, 295, 296, 297, 298, 299, 300, 301, 302, 303, 304, 305, 306, 307, 308, 309, 310, 311, 312, 313, 314, 315, 316, 317, 318, 319, 320, 321, 322, 323, 324, 325, 326, 327, 328, 329, 330, 331, 332, 333, 334, 335, 336, 337, 338, 339, 340, 341, 342, 343, 344, 345, 346, 347, 348, 349, 350, 351, 352, 353, 354, 355, 356, 357, 358, 359, 360, 361, 362, 363, 364, 365, 366, 367, 368, 369, 370, 371, 372, 373, 374, 375, 376, 377, 378, 379, 380, 381, 382, 383, 384, 385, 386, 387, 388, 389, 390, 391, 392, 393, 394, 395, 396, 397, 398, 399, 400, 401, 402, 403, 404, 405, 406, 407, 408, 409, 410, 411, 412, 413, 414, 415, 416, 417, 418, 419, 420, 421, 422, 423, 424, 425, 426, 427, 428, 429, 430, 431, 432, 433, 434, 435, 436, 437, 438, 439, 440, 441, 442, 443, 444, 445, 446, 447, 448, 449, 450, 451, 452, 453, 454, 455, 456, 457, 458, 459, 460, 461, 462, 463, 464, 465, 466, 467, 468, 469, 470, 471, 472, 473, 474, 475, 476, 477, 478, 479, 480, 481, 482, 483, 484, 485, 486, 487, 488, 489, 490, 491, 492, 493, 494, 495, 496, 497, 498, 499, 500, 501],
      "AcquisitionTime": ["165055.292500", "165056.782500", "165058.272500", "165059.762500", "165101.252500", "165102.742500", "165104.232500", "165105.722500", "165107.212500", "165108.702500", "165110.192500", "165111.682500", "165113.172500", "165114.662500", "165116.152500", "165117.642500", "165119.132500", "165120.622500", "165122.112500", "165123.602500", "165125.092500", "165126.582500", "165128.072500", "165129.562500", "165131.052500", "165132.542500", "165134.032500", "165135.522500", "165137.012500", "165138.502500", "165139.992500", "165141.482500", "165142.972500", "165144.462500", "165145.952500", "165147.442500", "165148.932500", "165150.422500", "165151.912500", "165153.402500", "165154.892500", "165156.382500", "165157.872500", "165159.362500", "165200.852500", "165202.342500", "165203.832500", "165205.322500", "165206.812500", "165208.302500", "165209.792500", "165211.282500", "165212.772500", "165214.262500", "165215.752500", "165217.242500", "165218.732500", "165220.222500", "165221.712500", "165223.202500", "165224.692500", "165226.182500", "165227.672500", "165229.162500", "165230.652500", "165232.142500", "165233.632500", "165235.122500", "165236.612500", "165238.102500", "165239.592500", "165241.082500", "165242.572500", "165244.062500", "165245.552500", "165247.042500", "165248.532500", "165250.022500", "165251.512500", "165253.002500", "165254.492500", "165255.982500", "165257.472500", "165258.962500", "165300.452500", "165301.942500", "165303.432500", "165304.922500", "165306.412500", "165307.902500", "165309.392500", "165310.882500", "165312.372500", "165313.862500", "165315.352500", "165316.842500", "165318.332500", "165319.822500", "165321.312500", "165322.802500", "165324.292500", "165325.782500", "165327.272500", "165328.762500", "165330.252500", "165331.742500", "165333.232500", "165334.722500", "165336.212500", "165337.702500", "165339.192500", "165340.682500", "165342.172500", "165343.662500", "165345.152500", "165346.642500", "165348.132500", "165349.622500", "165351.112500", "165352.602500", "165354.092500", "165355.582500", "165357.072500", "165358.562500", "165400.052500", "165401.542500", "165403.032500", "165404.522500", "165406.012500", "165407.502500", "165408.992500", "165410.482500", "165411.972500", "165413.462500", "165414.952500", "165416.442500", "165417.932500", "165419.422500", "165420.912500", "165422.402500", "165423.892500", "165425.382500", "165426.872500", "165428.362500", "165429.852500", "165431.342500", "165432.832500", "165434.322500", "165435.812500", "165437.302500", "165438.792500", "165440.282500", "165441.772500", "165443.262500", "165444.752500", "165446.242500", "165447.732500", "165449.222500", "165450.712500", "165452.202500", "165453.692500", "165455.182500", "165456.672500", "165458.162500", "165459.652500", "165501.142500", "165502.632500", "165504.122500", "165505.612500", "165507.102500", "165508.592500", "165510.082500", "165511.572500", "165513.062500", "165514.552500", "165516.042500", "165517.532500", "165519.022500", "165520.512500", "165522.002500", "165523.492500", "165524.982500", "165526.472500", "165527.962500", "165529.452500", "165530.942500", "165532.432500", "165533.922500", "165535.412500", "165536.902500", "165538.392500", "165539.882500", "165541.372500", "165542.862500", "165544.352500", "165545.842500", "165547.332500", "165548.822500", "165550.312500", "165551.802500", "165553.292500", "165554.782500", "165556.272500", "165557.762500", "165559.252500", "165600.742500", "165602.232500", "165603.722500", "165605.212500", "165606.702500", "165608.192500", "165609.682500", "165611.172500", "165612.662500", "165614.152500", "165615.642500", "165617.132500", "165618.622500", "165620.112500", "165621.602500", "165623.092500", "165624.582500", "165626.072500", "165627.562500", "165629.052500", "165630.542500", "165632.032500", "165633.522500", "165635.012500", "165636.502500", "165637.992500", "165639.482500", "165640.972500", "165642.462500", "165643.952500", "165645.442500", "165646.932500", "165648.422500", "165649.912500", "165651.402500", "165652.892500", "165654.382500", "165655.872500", "165657.362500", "165658.852500", "165700.342500", "165701.832500", "165703.322500", "165704.812500", "165706.302500", "165707.792500", "165709.282500", "165710.772500", "165712.262500", "165713.752500", "165715.242500", "165716.732500", "165718.222500", "165719.712500", "165721.202500", "165722.692500", "165724.182500", "165725.672500", "165727.162500", "165728.652500", "165730.142500", "165731.632500", "165733.122500", "165734.612500", "165736.102500", "165737.592500", "165739.082500", "165740.572500", "165742.062500", "165743.552500", "165745.042500", "165746.532500", "165748.022500", "165749.512500", "165751.002500", "165752.492500", "165753.982500", "165755.472500", "165756.962500", "165758.452500", "165759.942500", "165801.432500", "165802.922500", "165804.412500", "165805.902500", "165807.392500", "165808.882500", "165810.372500", "165811.862500", "165813.352500", "165814.842500", "165816.332500", "165817.822500", "165819.312500", "165820.802500", "165822.292500", "165823.782500", "165825.272500", "165826.762500", "165828.252500", "165829.742500", "165831.232500", "165832.722500", "165834.212500", "165835.702500", "165837.192500", "165838.682500", "165840.172500", "165841.662500", "165843.152500", "165844.642500", "165846.132500", "165847.622500", "165849.112500", "165850.602500", "165852.092500", "165853.582500", "165855.072500", "165856.562500", "165858.052500", "165859.542500", "165901.032500", "165902.522500", "165904.012500", "165905.502500", "165906.992500", "165908.482500", "165909.972500", "165911.462500", "165912.952500", "165914.442500", "165915.932500", "165917.422500", "165918.912500", "165920.402500", "165921.892500", "165923.382500", "165924.872500", "165926.362500", "165927.852500", "165929.342500", "165930.832500", "165932.322500", "165933.812500", "165935.302500", "165936.792500", "165938.282500", "165939.772500", "165941.262500", "165942.752500", "165944.242500", "165945.732500", "165947.222500", "165948.712500", "165950.202500", "165951.692500", "165953.182500", "165954.672500", "165956.162500", "165957.652500", "165959.142500", "170000.632500", "170002.122500", "170003.612500", "170005.102500", "170006.592500", "170008.082500", "170009.572500", "170011.062500", "170012.552500", "170014.042500", "170015.532500", "170017.022500", "170018.512500", "170020.002500", "170021.492500", "170022.982500", "170024.472500", "170025.962500", "170027.452500", "170028.942500", "170030.432500", "170031.922500", "170033.412500", "170034.902500", "170036.392500", "170037.882500", "170039.372500", "170040.862500", "170042.352500", "170043.842500", "170045.332500", "170046.822500", "170048.312500", "170049.802500", "170051.292500", "170052.782500", "170054.272500", "170055.762500", "170057.252500", "170058.742500", "170100.232500", "170101.722500", "170103.212500", "170104.702500", "170106.192500", "170107.682500", "170109.172500", "170110.662500", "170112.152500", "170113.642500", "170115.132500", "170116.622500", "170118.112500", "170119.602500", "170121.092500", "170122.582500", "170124.072500", "170125.562500", "170127.052500", "170128.542500", "170130.032500", "170131.522500", "170133.012500", "170134.502500", "170135.992500", "170137.482500", "170138.972500", "170140.462500", "170141.952500", "170143.442500", "170144.932500", "170146.422500", "170147.912500", "170149.402500", "170150.892500", "170152.382500", "170153.872500", "170155.362500", "170156.852500", "170158.342500", "170159.832500", "170201.322500", "170202.812500", "170204.302500", "170205.792500", "170207.282500", "170208.772500", "170210.262500", "170211.752500", "170213.242500", "170214.732500", "170216.222500", "170217.712500", "170219.202500", "170220.692500", "170222.182500", "170223.672500", "170225.162500", "170226.652500", "170228.142500", "170229.632500", "170231.122500", "170232.612500", "170234.102500", "170235.592500", "170237.082500", "170238.572500", "170240.062500", "170241.552500", "170243.042500", "170244.532500", "170246.022500", "170247.512500", "170249.002500", "170250.492500", "170251.982500", "170253.472500", "170254.962500", "170256.452500", "170257.942500", "170259.432500", "170300.922500", "170302.412500", "170303.902500", "170305.392500", "170306.882500", "170308.372500", "170309.862500", "170311.352500", "170312.842500", "170314.332500", "170315.822500", "170317.312500", "170318.802500", "170320.292500"],
      "ContentTime": ["165227.710000", "165227.714000", "165227.717000", "165227.720000", "165227.724000", "165227.727000", "165227.736000", "165227.740000", "165227.743000", "165227.746000", "165227.749000", "165227.753000", "165227.756000", "165227.759000", "165227.765000", "165227.769000", "165227.772000", "165227.775000", "165227.778000", "165227.782000", "165227.785000", "165227.788000", "165227.792000", "165227.795000", "165227.798000", "165227.801000", "165227.805000", "165227.808000", "165227.811000", "165227.814000", "165227.818000", "165227.821000", "165227.824000", "165227.827000", "165227.830000", "165227.834000", "165227.837000", "165247.675000", "165247.679000", "165247.682000", "165247.685000", "165247.689000", "165247.692000", "165247.704000", "165247.707000", "165247.710000", "165247.714000", "165247.717000", "165247.720000", "165247.723000", "165247.727000", "165247.730000", "165247.733000", "165247.736000", "165247.740000", "165247.743000", "165247.746000", "165307.675000", "165307.679000", "165307.699000", "165307.703000", "165307.706000", "165307.709000", "165307.712000", "165307.715000", "165307.719000", "165307.722000", "165307.725000", "165307.729000", "165307.732000", "165307.735000", "165307.738000", "165307.742000", "165307.745000", "165307.748000", "165307.752000", "165307.755000", "165327.676000", "165327.680000", "165327.683000", "165327.686000", "165327.689000", "165327.693000", "165327.696000", "165327.699000", "165327.703000", "165327.706000", "165327.710000", "165327.713000", "165327.716000", "165327.719000", "165327.723000", "165327.726000", "165327.729000", "165327.732000", "165327.736000", "165327.739000", "165407.676000", "165407.680000", "165407.683000", "165407.686000", "165407.690000", "165407.693000", "165407.696000", "165407.700000", "165407.703000", "165407.706000", "165407.709000", "165407.713000", "165407.716000", "165407.719000", "165407.722000", "165407.726000", "165407.729000", "165407.732000", "165407.736000", "165407.739000", "165407.742000", "165407.745000", "165407.749000", "165407.752000", "165407.755000", "165407.758000", "165407.762000", "165407.765000", "165407.768000", "165407.771000", "165407.774000", "165447.676000", "165447.680000", "165447.683000", "165447.686000", "165447.689000", "165447.693000", "165447.696000", "165447.699000", "165447.702000", "165447.706000", "165447.709000", "165447.712000", "165447.715000", "165447.718000", "165447.722000", "165447.725000", "165447.728000", "165447.731000", "165447.735000", "165447.738000", "165447.741000", "165447.744000", "165447.748000", "165447.751000", "165447.754000", "165447.757000", "165447.761000", "165527.675000", "165527.679000", "165527.682000", "165527.685000", "165527.688000", "165527.692000", "165527.695000", "165527.698000", "165527.702000", "165527.705000", "165527.708000", "165527.711000", "165527.715000", "165527.718000", "165527.721000", "165527.724000", "165527.727000", "165527.731000", "165527.734000", "165527.737000", "165527.740000", "165527.744000", "165527.747000", "165527.750000", "165527.753000", "165527.757000", "165527.760000", "165607.676000", "165607.680000", "165607.684000", "165607.688000", "165607.691000", "165607.695000", "165607.698000", "165607.702000", "165607.705000", "165607.708000", "165607.711000", "165607.715000", "165607.718000", "165607.721000", "165607.724000", "165607.728000", "165607.731000", "165607.734000", "165607.737000", "165607.740000", "165607.744000", "165607.747000", "165607.750000", "165607.753000", "165607.757000", "165607.760000", "165647.676000", "165647.680000", "165647.683000", "165647.686000", "165647.690000", "165647.693000", "165647.696000", "165647.699000", "165647.702000", "165647.706000", "165647.709000", "165647.712000", "165647.715000", "165647.719000", "165647.722000", "165647.725000", "165647.728000", "165647.731000", "165647.735000", "165647.738000", "165647.741000", "165647.744000", "165647.748000", "165647.751000", "165647.754000", "165647.757000", "165647.761000", "165727.675000", "165727.679000", "165727.682000", "165727.685000", "165727.689000", "165727.692000", "165727.695000", "165727.698000", "165727.702000", "165727.705000", "165727.708000", "165727.711000", "165727.715000", "165727.718000", "165727.721000", "165727.725000", "165727.728000", "165727.731000", "165727.734000", "165727.737000", "165727.741000", "165727.744000", "165727.747000", "165727.750000", "165727.754000", "165727.757000", "165727.760000", "165807.676000", "165807.680000", "165807.683000", "165807.686000", "165807.690000", "165807.693000", "165807.696000", "165807.699000", "165807.703000", "165807.706000", "165807.709000", "165807.712000", "165807.716000", "165807.719000", "165807.722000", "165807.726000", "165807.729000", "165807.732000", "165807.735000", "165807.739000", "165807.742000", "165807.745000", "165807.748000", "165807.752000", "165807.755000", "165807.758000", "165807.761000", "165847.676000", "165847.680000", "165847.683000", "165847.686000", "165847.690000", "165847.693000", "165847.696000", "165847.699000", "165847.703000", "165847.706000", "165847.709000", "165847.712000", "165847.716000", "165847.719000", "165847.722000", "165847.726000", "165847.729000", "165847.732000", "165847.735000", "165847.739000", "165847.742000", "165847.745000", "165847.748000", "165847.752000", "165847.755000", "165847.758000", "165847.761000", "165927.676000", "165927.680000", "165927.683000", "165927.686000", "165927.690000", "165927.693000", "165927.696000", "165927.700000", "165927.703000", "165927.706000", "165927.709000", "165927.713000", "165927.716000", "165927.719000", "165927.722000", "165927.726000", "165927.729000", "165927.732000", "165927.735000", "165927.739000", "165927.742000", "165927.745000", "165927.748000", "165927.752000", "165927.755000", "165927.758000", "165927.761000", "170007.675000", "170007.679000", "170007.682000", "170007.701000", "170007.704000", "170007.708000", "170007.711000", "170007.714000", "170007.717000", "170007.721000", "170007.724000", "170007.727000", "170007.730000", "170007.734000", "170007.737000", "170007.740000", "170007.743000", "170007.747000", "170007.750000", "170007.753000", "170007.757000", "170007.760000", "170007.763000", "170007.767000", "170007.770000", "170007.773000", "170007.776000", "170047.676000", "170047.680000", "170047.684000", "170047.687000", "170047.690000", "170047.693000", "170047.697000", "170047.700000", "170047.704000", "170047.708000", "170047.711000", "170047.714000", "170047.718000", "170047.721000", "170047.724000", "170047.727000", "170047.731000", "170047.734000", "170047.737000", "170047.741000", "170047.744000", "170047.747000", "170047.750000", "170047.753000", "170047.757000", "170047.760000", "170127.676000", "170127.680000", "170127.683000", "170127.687000", "170127.690000", "170127.693000", "170127.696000", "170127.700000", "170127.703000", "170127.706000", "170127.709000", "170127.713000", "170127.716000", "170127.719000", "170127.722000", "170127.725000", "170127.729000", "170127.732000", "170127.735000", "170127.738000", "170127.742000", "170127.745000", "170127.748000", "170127.751000", "170127.755000", "170127.758000", "170127.761000", "170207.675000", "170207.679000", "170207.682000", "170207.685000", "170207.689000", "170207.692000", "170207.695000", "170207.698000", "170207.702000", "170207.706000", "170207.709000", "170207.712000", "170207.715000", "170207.719000", "170207.722000", "170207.725000", "170207.728000", "170207.732000", "170207.735000", "170207.749000", "170207.753000", "170207.756000", "170207.759000", "170207.762000", "170207.766000", "170207.769000", "170207.772000", "170247.676000", "170247.680000", "170247.683000", "170247.686000", "170247.690000", "170247.693000", "170247.696000", "170247.700000", "170247.703000", "170247.706000", "170247.709000", "170247.713000", "170247.716000", "170247.719000", "170247.722000", "170247.726000", "170247.729000", "170247.732000", "170247.735000", "170247.739000", "170247.742000", "170247.745000", "170247.748000", "170247.752000", "170247.755000", "170247.758000", "170247.761000", "170323.972000", "170323.976000", "170323.979000", "170323.982000", "170323.986000", "170323.989000", "170323.993000", "170323.996000", "170324.000000", "170324.003000", "170324.007000", "170324.010000", "170324.013000", "170324.016000", "170324.020000", "170324.023000", "170324.026000", "170324.029000", "170324.033000", "170324.036000", "170324.039000", "170324.043000", "170324.046000", "170324.049000"],
