{
  "AcquisitionMatrixPE": 104,
  "AcquisitionNumber": 1,
  "AcquisitionTime": "17:21:22.697500",
  "BandwidthPerPixelPhaseEncode": 17.17,
  "BaseResolution": 104,
  "BodyPartExamined": "BRAIN",
  "CoilCombinationMethod": "Sum of Squares",
  "ConsistencyInfo": "N4_VE11C_LATEST_20160120",
  "ConversionSoftware": "dcm2niix",
  "ConversionSoftwareVersion": "v1.0.20211006",
  "DerivedVendorReportedEchoSpacing": 0.000560011,
  "DeviceSerialNumber": "167006",
  "DwellTime": 2.1e-06,
  "EchoTime": 0.037,
  "EchoTime1": 0.037,
  "EchoTime2": 0.001,
  "EchoTrainLength": 104,
  "EffectiveEchoSpacing": 0.000560011,
  "FlipAngle": 52,
  "HeudiconvVersion": "0.10.0",
  "ImageComments": "Unaliased MB4/PE3/LB",
  "ImageOrientationPatientDICOM": [0.999796, -0.0104117, 0.017316, 0.0162297, 0.924306, -0.381308],
  "ImageOrientationText": "Tra>Cor(-22.4)>Sag(0.7)",
  "ImageType": [
    "ORIGINAL",
    "PRIMARY",
    "P",
    "MB",
    "ND",
    "MOSAIC",
    "PHASE"
],
  "ImagingFrequency": 123.259,
  "InPlanePhaseEncodingDirectionDICOM": "COL",
  "InstitutionAddress": "Chemin Queen-Mary 4565,Montreal,District,CA,H3W 1W5",
  "InstitutionName": "IUGM",
  "InstitutionalDepartmentName": "Department",
  "MRAcquisitionType": "2D",
  "MagneticFieldStrength": 3,
  "Manufacturer": "Siemens",
  "ManufacturersModelName": "Prisma_fit",
  "MatrixCoilMode": "SENSE",
  "Modality": "MR",
  "MultibandAccelerationFactor": 4,
  "PartialFourier": 1,
  "PatientPosition": "HFS",
  "PercentPhaseFOV": 100,
  "PercentSampling": 100,
  "PhaseEncodingDirection": "j",
  "PhaseEncodingSteps": 104,
  "PhaseResolution": 1,
  "PixelBandwidth": 2290,
  "ProcedureStepDescription": "games^mario",
  "ProtocolName": "func_task-mario_run-04",
  "PulseSequenceDetails": "%CustomerSeq%\\cmrr_mbep2d_bold",
  "ReceiveCoilActiveElements": "HC1-7;NC1,2",
  "ReceiveCoilName": "HeadNeck_64",
  "ReconMatrixPE": 104,
  "RepetitionTime": 1.49,
  "SAR": 0.0577699,
  "ScanOptions": "FS",
  "ScanningSequence": "EP",
  "SequenceName": "epfid2d1_104",
  "SequenceVariant": "SK\\SS",
  "SeriesDescription": "func_task-mario_run-04",
  "SeriesNumber": 20,
  "ShimSetting": [607, -7248, -8841, 332, -10, -337, 30, 16],
  "SliceThickness": 2,
  "SliceTiming": [0, 0.7825, 0.0975, 0.88, 0.195, 0.98, 0.2925, 1.0775, 0.39, 1.175, 0.49, 1.2725, 0.5875, 1.37, 0.685, 0, 0.7825, 0.0975, 0.88, 0.195, 0.98, 0.2925, 1.0775, 0.39, 1.175, 0.49, 1.2725, 0.5875, 1.37, 0.685, 0, 0.7825, 0.0975, 0.88, 0.195, 0.98, 0.2925, 1.0775, 0.39, 1.175, 0.49, 1.2725, 0.5875, 1.37, 0.685, 0, 0.7825, 0.0975, 0.88, 0.195, 0.98, 0.2925, 1.0775, 0.39, 1.175, 0.49, 1.2725, 0.5875, 1.37, 0.685],
  "SoftwareVersions": "syngo MR E11",
  "SpacingBetweenSlices": 2,
  "StationName": "MRC35049",
  "TaskName": "mario",
  "TotalReadoutTime": 0.0576811,
  "TxRefAmp": 282.819,
  "WipMemBlock": "135d83bb-ad53-4c1b-bfdb-e3344520cc46||Sequence: R016 ve11c/master r/e634e98; Dec 19 2017 11:00:25 by eja",
  "dcmmeta_affine": [
    [-1.9995917081832886, 0.03245933726429939, 0.024070460349321365, 102.07971954345703],
    [0.020823456346988678, 1.8486113548278809, -0.7630217671394348, -61.18486022949219],
    [0.03463205695152283, 0.762615442276001, 1.8485718965530396, -70.776611328125],
    [0.0, 0.0, 0.0, 1.0]
],
  "dcmmeta_reorient_transform": [
    [0.0, -1.0, 0.0, 103.0],
    [1.0, 0.0, 0.0, 0.0],
    [0.0, 0.0, 1.0, 0.0],
    [0.0, 0.0, 0.0, 1.0]
],
  "dcmmeta_shape": [104, 104, 60, 506],
  "dcmmeta_slice_dim": 2,
  "dcmmeta_version": 0.6,
  "global": {
    "const": {
      "AcquisitionMatrix": [104, 0, 0, 104],
      "AngioFlag": "N",
      "BitsAllocated": 16,
      "BitsStored": 16,
      "BodyPartExamined": "BRAIN",
      "Columns": 832,
      "EchoNumbers": 1,
      "EchoTime": 37.0,
      "EchoTrainLength": 104,
      "FlipAngle": 52.0,
      "HighBit": 15,
      "ImageOrientationPatient": [0.9997958547058, -0.0104117284585, 0.01731602793967, 0.01622966822777, 0.92430569774518, -0.381307716923],
      "ImagePositionPatient": [-845.0896112131, -794.53692172878, 272.75872592014],
      "ImageType": [
        "ORIGINAL",
        "PRIMARY",
        "P",
        "MB",
        "ND",
        "MOSAIC"
],
      "ImagedNucleus": "1H",
      "ImagingFrequency": 123.25884,
      "InPlanePhaseEncodingDirection": "COL",
      "LargestImagePixelValue": 4095,
      "MRAcquisitionType": "2D",
      "MagneticFieldStrength": 3.0,
      "Manufacturer": "SIEMENS",
      "ManufacturerModelName": "Prisma_fit",
      "Modality": "MR",
      "NumberOfAverages": 1.0,
      "NumberOfPhaseEncodingSteps": 104,
      "PercentPhaseFieldOfView": 100.0,
      "PercentSampling": 100.0,
      "PerformedProcedureStepStartTime": "161010.658000",
      "PhotometricInterpretation": "MONOCHROME2",
      "PixelBandwidth": 2290.0,
      "PixelRepresentation": 0,
      "PixelSpacing": [2.0, 2.0],
      "ProtocolName": "func_task-mario_run-04",
      "RepetitionTime": 1490.0,
      "RescaleIntercept": -4096.0,
      "RescaleSlope": 2.0,
      "RescaleType": "US",
      "Rows": 832,
      "SAR": 0.05776994829916,
      "SamplesPerPixel": 1,
      "ScanOptions": "FS",
      "ScanningSequence": "EP",
      "SequenceName": "epfid2d1_104",
      "SequenceVariant": [
        "SK",
        "SS"
],
      "SeriesDescription": "func_task-mario_run-04",
      "SeriesNumber": 20,
      "SeriesTime": "172242.554000",
      "SliceLocation": -40.84658659363,
      "SliceThickness": 2.0,
      "SmallestImagePixelValue": 0,
      "SoftwareVersions": "syngo MR E11",
      "SpacingBetweenSlices": 1.9999999467399,
      "SpecificCharacterSet": "ISO_IR 100",
      "StudyID": "1",
      "StudyTime": "161010.583000",
      "TransmitCoilName": "Body",
      "VariableFlipAngleFlag": "N",
      "WindowCenterWidthExplanation": "Algo1",
      "dBdt": 0.0},
    "slices": {}
  },
  "time": {
    "samples": {
      "AcquisitionNumber": [1, 2, 3, 4, 5, 6, 7, 8, 9, 10, 11, 12, 13, 14, 15, 16, 17, 18, 19, 20, 21, 22, 23, 24, 25, 26, 27, 28, 29, 30, 31, 32, 33, 34, 35, 36, 37, 38, 39, 40, 41, 42, 43, 44, 45, 46, 47, 48, 49, 50, 51, 52, 53, 54, 55, 56, 57, 58, 59, 60, 61, 62, 63, 64, 65, 66, 67, 68, 69, 70, 71, 72, 73, 74, 75, 76, 77, 78, 79, 80, 81, 82, 83, 84, 85, 86, 87, 88, 89, 90, 91, 92, 93, 94, 95, 96, 97, 98, 99, 100, 101, 102, 103, 104, 105, 106, 107, 108, 109, 110, 111, 112, 113, 114, 115, 116, 117, 118, 119, 120, 121, 122, 123, 124, 125, 126, 127, 128, 129, 130, 131, 132, 133, 134, 135, 136, 137, 138, 139, 140, 141, 142, 143, 144, 145, 146, 147, 148, 149, 150, 151, 152, 153, 154, 155, 156, 157, 158, 159, 160, 161, 162, 163, 164, 165, 166, 167, 168, 169, 170, 171, 172, 173, 174, 175, 176, 177, 178, 179, 180, 181, 182, 183, 184, 185, 186, 187, 188, 189, 190, 191, 192, 193, 194, 195, 196, 197, 198, 199, 200, 201, 202, 203, 204, 205, 206, 207, 208, 209, 210, 211, 212, 213, 214, 215, 216, 217, 218, 219, 220, 221, 222, 223, 224, 225, 226, 227, 228, 229, 230, 231, 232, 233, 234, 235, 236, 237, 238, 239, 240, 241, 242, 243, 244, 245, 246, 247, 248, 249, 250, 251, 252, 253, 254, 255, 256, 257, 258, 259, 260, 261, 262, 263, 264, 265, 266, 267, 268, 269, 270, 271, 272, 273, 274, 275, 276, 277, 278, 279, 280, 281, 282, 283, 284, 285, 286, 287, 288, 289, 290, 291, 292, 293, 294, 295, 296, 297, 298, 299, 300, 301, 302, 303, 304, 305, 306, 307, 308, 309, 310, 311, 312, 313, 314, 315, 316, 317, 318, 319, 320, 321, 322, 323, 324, 325, 326, 327, 328, 329, 330, 331, 332, 333, 334, 335, 336, 337, 338, 339, 340, 341, 342, 343, 344, 345, 346, 347, 348, 349, 350, 351, 352, 353, 354, 355, 356, 357, 358, 359, 360, 361, 362, 363, 364, 365, 366, 367, 368, 369, 370, 371, 372, 373, 374, 375, 376, 377, 378, 379, 380, 381, 382, 383, 384, 385, 386, 387, 388, 389, 390, 391, 392, 393, 394, 395, 396, 397, 398, 399, 400, 401, 402, 403, 404, 405, 406, 407, 408, 409, 410, 411, 412, 413, 414, 415, 416, 417, 418, 419, 420, 421, 422, 423, 424, 425, 426, 427, 428, 429, 430, 431, 432, 433, 434, 435, 436, 437, 438, 439, 440, 441, 442, 443, 444, 445, 446, 447, 448, 449, 450, 451, 452, 453, 454, 455, 456, 457, 458, 459, 460, 461, 462, 463, 464, 465, 466, 467, 468, 469, 470, 471, 472, 473, 474, 475, 476, 477, 478, 479, 480, 481, 482, 483, 484, 485, 486, 487, 488, 489, 490, 491, 492, 493, 494, 495, 496, 497, 498, 499, 500, 501, 502, 503, 504, 505, 506],
      "AcquisitionTime": ["172122.697500", "172124.187500", "172125.677500", "172127.167500", "172128.657500", "172130.147500", "172131.637500", "172133.127500", "172134.617500", "172136.107500", "172137.597500", "172139.087500", "172140.577500", "172142.067500", "172143.557500", "172145.047500", "172146.537500", "172148.027500", "172149.517500", "172151.007500", "172152.497500", "172153.987500", "172155.477500", "172156.967500", "172158.457500", "172159.947500", "172201.437500", "172202.927500", "172204.417500", "172205.907500", "172207.397500", "172208.887500", "172210.377500", "172211.867500", "172213.357500", "172214.847500", "172216.337500", "172217.827500", "172219.317500", "172220.807500", "172222.297500", "172223.787500", "172225.277500", "172226.767500", "172228.257500", "172229.747500", "172231.237500", "172232.727500", "172234.217500", "172235.707500", "172237.197500", "172238.687500", "172240.177500", "172241.667500", "172243.157500", "172244.647500", "172246.137500", "172247.627500", "172249.117500", "172250.607500", "172252.097500", "172253.587500", "172255.077500", "172256.567500", "172258.057500", "172259.547500", "172301.037500", "172302.527500", "172304.017500", "172305.507500", "172306.997500", "172308.487500", "172309.977500", "172311.467500", "172312.957500", "172314.447500", "172315.937500", "172317.427500", "172318.917500", "172320.407500", "172321.897500", "172323.387500", "172324.877500", "172326.367500", "172327.857500", "172329.347500", "172330.837500", "172332.327500", "172333.817500", "172335.307500", "172336.797500", "172338.287500", "172339.777500", "172341.267500", "172342.757500", "172344.247500", "172345.737500", "172347.227500", "172348.717500", "172350.207500", "172351.697500", "172353.187500", "172354.677500", "172356.167500", "172357.657500", "172359.147500", "172400.637500", "172402.127500", "172403.617500", "172405.107500", "172406.597500", "172408.087500", "172409.577500", "172411.067500", "172412.557500", "172414.047500", "172415.537500", "172417.027500", "172418.517500", "172420.007500", "172421.497500", "172422.987500", "172424.477500", "172425.967500", "172427.457500", "172428.947500", "172430.437500", "172431.927500", "172433.417500", "172434.907500", "172436.397500", "172437.887500", "172439.377500", "172440.867500", "172442.357500", "172443.847500", "172445.337500", "172446.827500", "172448.317500", "172449.807500", "172451.297500", "172452.787500", "172454.277500", "172455.767500", "172457.257500", "172458.747500", "172500.237500", "172501.727500", "172503.217500", "172504.707500", "172506.197500", "172507.687500", "172509.177500", "172510.667500", "172512.157500", "172513.647500", "172515.137500", "172516.627500", "172518.117500", "172519.607500", "172521.097500", "172522.587500", "172524.077500", "172525.567500", "172527.057500", "172528.547500", "172530.037500", "172531.527500", "172533.017500", "172534.507500", "172535.997500", "172537.487500", "172538.977500", "172540.467500", "172541.957500", "172543.447500", "172544.937500", "172546.427500", "172547.917500", "172549.407500", "172550.897500", "172552.387500", "172553.877500", "172555.367500", "172556.857500", "172558.347500", "172559.837500", "172601.327500", "172602.817500", "172604.307500", "172605.797500", "172607.287500", "172608.777500", "172610.267500", "172611.757500", "172613.247500", "172614.737500", "172616.227500", "172617.717500", "172619.207500", "172620.697500", "172622.187500", "172623.677500", "172625.167500", "172626.657500", "172628.147500", "172629.637500", "172631.127500", "172632.617500", "172634.107500", "172635.597500", "172637.087500", "172638.577500", "172640.067500", "172641.557500", "172643.047500", "172644.537500", "172646.027500", "172647.517500", "172649.007500", "172650.497500", "172651.987500", "172653.477500", "172654.967500", "172656.457500", "172657.947500", "172659.437500", "172700.927500", "172702.417500", "172703.907500", "172705.397500", "172706.887500", "172708.377500", "172709.867500", "172711.357500", "172712.847500", "172714.337500", "172715.827500", "172717.317500", "172718.807500", "172720.297500", "172721.787500", "172723.277500", "172724.767500", "172726.257500", "172727.747500", "172729.237500", "172730.727500", "172732.217500", "172733.707500", "172735.197500", "172736.687500", "172738.177500", "172739.667500", "172741.157500", "172742.647500", "172744.137500", "172745.627500", "172747.117500", "172748.607500", "172750.097500", "172751.587500", "172753.077500", "172754.567500", "172756.057500", "172757.547500", "172759.037500", "172800.527500", "172802.017500", "172803.507500", "172804.997500", "172806.487500", "172807.977500", "172809.467500", "172810.957500", "172812.447500", "172813.937500", "172815.427500", "172816.917500", "172818.407500", "172819.897500", "172821.387500", "172822.877500", "172824.367500", "172825.857500", "172827.347500", "172828.837500", "172830.327500", "172831.817500", "172833.307500", "172834.797500", "172836.287500", "172837.777500", "172839.267500", "172840.757500", "172842.247500", "172843.737500", "172845.227500", "172846.717500", "172848.207500", "172849.697500", "172851.187500", "172852.677500", "172854.167500", "172855.657500", "172857.147500", "172858.637500", "172900.127500", "172901.617500", "172903.107500", "172904.597500", "172906.087500", "172907.577500", "172909.067500", "172910.557500", "172912.047500", "172913.537500", "172915.027500", "172916.517500", "172918.007500", "172919.497500", "172920.987500", "172922.477500", "172923.967500", "172925.457500", "172926.947500", "172928.437500", "172929.927500", "172931.417500", "172932.907500", "172934.397500", "172935.887500", "172937.377500", "172938.867500", "172940.357500", "172941.847500", "172943.337500", "172944.827500", "172946.317500", "172947.807500", "172949.297500", "172950.787500", "172952.277500", "172953.767500", "172955.257500", "172956.747500", "172958.237500", "172959.727500", "173001.217500", "173002.707500", "173004.197500", "173005.687500", "173007.177500", "173008.667500", "173010.157500", "173011.647500", "173013.137500", "173014.627500", "173016.117500", "173017.607500", "173019.097500", "173020.587500", "173022.077500", "173023.567500", "173025.057500", "173026.547500", "173028.037500", "173029.527500", "173031.017500", "173032.507500", "173033.997500", "173035.487500", "173036.977500", "173038.467500", "173039.957500", "173041.447500", "173042.937500", "173044.427500", "173045.917500", "173047.407500", "173048.897500", "173050.387500", "173051.877500", "173053.367500", "173054.857500", "173056.347500", "173057.837500", "173059.327500", "173100.817500", "173102.307500", "173103.797500", "173105.287500", "173106.777500", "173108.267500", "173109.757500", "173111.247500", "173112.737500", "173114.227500", "173115.717500", "173117.207500", "173118.697500", "173120.187500", "173121.677500", "173123.167500", "173124.657500", "173126.147500", "173127.637500", "173129.127500", "173130.617500", "173132.107500", "173133.597500", "173135.087500", "173136.577500", "173138.067500", "173139.557500", "173141.047500", "173142.537500", "173144.027500", "173145.517500", "173147.007500", "173148.497500", "173149.987500", "173151.477500", "173152.967500", "173154.457500", "173155.947500", "173157.437500", "173158.927500", "173200.417500", "173201.907500", "173203.397500", "173204.887500", "173206.377500", "173207.867500", "173209.357500", "173210.847500", "173212.337500", "173213.827500", "173215.317500", "173216.807500", "173218.297500", "173219.787500", "173221.277500", "173222.767500", "173224.257500", "173225.747500", "173227.237500", "173228.727500", "173230.217500", "173231.707500", "173233.197500", "173234.687500", "173236.177500", "173237.667500", "173239.157500", "173240.647500", "173242.137500", "173243.627500", "173245.117500", "173246.607500", "173248.097500", "173249.587500", "173251.077500", "173252.567500", "173254.057500", "173255.547500", "173257.037500", "173258.527500", "173300.017500", "173301.507500", "173302.997500", "173304.487500", "173305.977500", "173307.467500", "173308.957500", "173310.447500", "173311.937500", "173313.427500", "173314.917500", "173316.407500", "173317.897500", "173319.387500", "173320.877500", "173322.367500", "173323.857500", "173325.347500", "173326.837500", "173328.327500", "173329.817500", "173331.307500", "173332.797500", "173334.287500", "173335.777500", "173337.267500", "173338.757500", "173340.247500", "173341.737500", "173343.227500", "173344.717500", "173346.207500", "173347.697500", "173349.187500", "173350.677500", "173352.167500", "173353.657500", "173355.147500"],
      "ContentTime": ["172242.556000", "172242.559000", "172242.561000", "172242.564000", "172242.566000", "172242.569000", "172242.571000", "172242.574000", "172242.576000", "172242.579000", "172242.581000", "172242.584000", "172242.586000", "172242.589000", "172242.591000", "172242.594000", "172242.596000", "172242.599000", "172242.601000", "172242.603000", "172242.606000", "172242.608000", "172242.611000", "172242.613000", "172242.616000", "172242.618000", "172302.896000", "172302.898000", "172302.901000", "172302.903000", "172302.906000", "172302.908000", "172302.911000", "172302.913000", "172302.916000", "172302.918000", "172302.920000", "172302.923000", "172302.925000", "172302.928000", "172302.930000", "172302.933000", "172302.935000", "172302.938000", "172302.940000", "172302.943000", "172322.490000", "172322.492000", "172322.495000", "172322.497000", "172322.505000", "172322.507000", "172322.510000", "172322.512000", "172322.515000", "172322.517000", "172322.520000", "172322.522000", "172322.524000", "172322.527000", "172322.529000", "172322.532000", "172322.534000", "172322.537000", "172322.539000", "172322.542000", "172342.500000", "172342.503000", "172342.505000", "172342.508000", "172342.510000", "172342.513000", "172342.515000", "172342.518000", "172342.520000", "172342.523000", "172342.525000", "172342.527000", "172342.530000", "172342.532000", "172342.535000", "172342.537000", "172342.540000", "172342.542000", "172342.545000", "172342.547000", "172342.549000", "172422.538000", "172422.541000", "172422.543000", "172422.546000", "172422.548000", "172422.551000", "172422.553000", "172422.556000", "172422.558000", "172422.561000", "172422.563000", "172422.566000", "172422.568000", "172422.571000", "172422.573000", "172422.576000", "172422.578000", "172422.581000", "172422.583000", "172422.586000", "172422.588000", "172422.591000", "172422.593000", "172422.595000", "172422.598000", "172422.621000", "172422.624000", "172422.626000", "172422.629000", "172422.631000", "172422.638000", "172422.641000", "172422.643000", "172502.521000", "172502.524000", "172502.526000", "172502.529000", "172502.531000", "172502.534000", "172502.536000", "172502.539000", "172502.541000", "172502.544000", "172502.546000", "172502.549000", "172502.551000", "172502.553000", "172502.556000", "172502.558000", "172502.561000", "172502.563000", "172502.566000", "172502.568000", "172502.571000", "172502.573000", "172502.576000", "172502.578000", "172502.581000", "172502.583000", "172502.586000", "172542.529000", "172542.531000", "172542.534000", "172542.536000", "172542.539000", "172542.541000", "172542.544000", "172542.546000", "172542.549000", "172542.551000", "172542.554000", "172542.556000", "172542.559000", "172542.561000", "172542.564000", "172542.566000", "172542.569000", "172542.571000", "172542.573000", "172542.576000", "172542.578000", "172542.581000", "172542.583000", "172542.586000", "172542.588000", "172542.591000", "172622.520000", "172622.523000", "172622.525000", "172622.528000", "172622.530000", "172622.533000", "172622.535000", "172622.538000", "172622.541000", "172622.543000", "172622.546000", "172622.548000", "172622.551000", "172622.553000", "172622.556000", "172622.558000", "172622.560000", "172622.563000", "172622.566000", "172622.568000", "172622.571000", "172622.573000", "172622.576000", "172622.578000", "172622.581000", "172622.583000", "172622.585000", "172702.527000", "172702.530000", "172702.533000", "172702.535000", "172702.538000", "172702.540000", "172702.543000", "172702.545000", "172702.547000", "172702.550000", "172702.552000", "172702.555000", "172702.557000", "172702.560000", "172702.562000", "172702.565000", "172702.567000", "172702.570000", "172702.572000", "172702.575000", "172702.577000", "172702.580000", "172702.589000", "172702.592000", "172702.594000", "172702.597000", "172702.599000", "172742.512000", "172742.515000", "172742.517000", "172742.520000", "172742.522000", "172742.525000", "172742.527000", "172742.530000", "172742.532000", "172742.535000", "172742.537000", "172742.540000", "172742.542000", "172742.544000", "172742.547000", "172742.549000", "172742.552000", "172742.555000", "172742.557000", "172742.560000", "172742.566000", "172742.568000", "172742.571000", "172742.574000", "172742.577000", "172742.580000", "172742.582000", "172802.459000", "172802.462000", "172802.464000", "172802.467000", "172802.469000", "172802.472000", "172802.474000", "172802.477000", "172802.479000", "172802.482000", "172802.484000", "172802.487000", "172802.489000", "172842.525000", "172842.528000", "172842.531000", "172842.533000", "172842.536000", "172842.538000", "172842.541000", "172842.543000", "172842.545000", "172842.548000", "172842.550000", "172842.553000", "172842.555000", "172842.558000", "172842.560000", "172842.563000", "172842.565000", "172842.568000", "172842.570000", "172842.573000", "172842.575000", "172842.578000", "172842.580000", "172842.582000", "172842.585000", "172842.587000", "172842.590000", "172922.527000", "172922.530000", "172922.532000", "172922.535000", "172922.537000", "172922.540000", "172922.542000", "172922.545000", "172922.547000", "172922.550000", "172922.552000", "172922.555000", "172922.557000", "172922.560000", "172922.562000", "172922.565000", "172922.567000", "172922.570000", "172922.572000", "172922.575000", "172922.577000", "172922.580000", "172922.582000", "172922.584000", "172922.587000", "172922.589000", "172922.592000", "173002.542000", "173002.545000", "173002.547000", "173002.551000", "173002.554000", "173002.557000", "173002.559000", "173002.562000", "173002.565000", "173002.567000", "173002.570000", "173002.573000", "173002.576000", "173002.578000", "173002.581000", "173002.584000", "173002.588000", "173002.590000", "173002.593000", "173002.596000", "173002.598000", "173002.601000", "173002.603000", "173002.606000", "173002.608000", "173002.611000", "173002.613000", "173042.532000", "173042.535000", "173042.537000", "173042.540000", "173042.542000", "173042.545000", "173042.548000", "173042.550000", "173042.553000", "173042.555000", "173042.558000", "173042.560000", "173042.563000", "173042.565000", "173042.568000", "173042.570000", "173042.573000", "173042.575000", "173042.578000", "173042.580000", "173042.583000", "173042.585000", "173042.588000", "173042.590000", "173042.593000", "173042.595000", "173042.602000", "173122.535000", "173122.538000", "173122.541000", "173122.543000", "173122.546000", "173122.548000", "173122.551000", "173122.553000", "173122.556000", "173122.558000", "173122.561000", "173122.563000", "173122.566000", "173122.568000", "173122.571000", "173122.574000", "173122.576000", "173122.579000", "173122.581000", "173122.584000", "173122.586000", "173122.589000", "173122.591000", "173122.594000", "173122.596000", "173122.599000", "173122.601000", "173202.515000", "173202.517000", "173202.520000", "173202.532000", "173202.535000", "173202.537000", "173202.540000", "173202.542000", "173202.545000", "173202.547000", "173202.550000", "173202.552000", "173202.555000", "173202.557000", "173202.560000", "173202.563000", "173202.565000", "173202.567000", "173202.570000", "173202.573000", "173202.575000", "173202.578000", "173202.580000", "173202.583000", "173202.585000", "173202.588000", "173242.512000", "173242.514000", "173242.517000", "173242.520000", "173242.522000", "173242.525000", "173242.527000", "173242.530000", "173242.532000", "173242.535000", "173242.538000", "173242.540000", "173242.543000", "173242.545000", "173242.548000", "173242.550000", "173242.553000", "173242.555000", "173242.558000", "173242.560000", "173242.563000", "173242.565000", "173242.568000", "173242.571000", "173242.573000", "173242.575000", "173242.578000", "173322.892000", "173322.894000", "173322.897000", "173322.899000", "173322.902000", "173322.904000", "173322.907000", "173322.909000", "173322.912000", "173322.914000", "173322.917000", "173322.919000", "173322.922000", "173322.924000", "173322.927000", "173322.929000", "173322.931000", "173322.934000", "173322.936000", "173322.939000", "173322.941000", "173322.944000", "173322.946000", "173322.949000", "173322.951000", "173322.954000", "173322.956000", "173357.767000", "173357.770000", "173357.772000", "173357.775000", "173357.777000", "173357.780000", "173357.782000", "173357.785000", "173357.787000", "173357.790000", "173357.792000", "173357.795000", "173357.797000", "173357.800000", "173357.802000", "173357.805000", "173357.807000", "173357.809000", "173357.812000", "173357.814000", "173357.817000", "173357.819000", "173357.822000", "173357.824000"],
