{
  "AcquisitionMatrixPE": 104,
  "AcquisitionNumber": 1,
  "AcquisitionTime": "17:25:42.657500",
  "BandwidthPerPixelPhaseEncode": 17.17,
  "BaseResolution": 104,
  "BodyPartExamined": "BRAIN",
  "CoilCombinationMethod": "Sum of Squares",
  "ConsistencyInfo": "N4_VE11C_LATEST_20160120",
  "ConversionSoftware": "dcm2niix",
  "ConversionSoftwareVersion": "v1.0.20211006",
  "DerivedVendorReportedEchoSpacing": 0.000560011,
  "DeviceSerialNumber": "167006",
  "DwellTime": 2.1e-06,
  "EchoTime": 0.037,
  "EchoTime1": 0.037,
  "EchoTime2": 0.001,
  "EchoTrainLength": 104,
  "EffectiveEchoSpacing": 0.000560011,
  "FlipAngle": 52,
  "HeudiconvVersion": "0.10.0",
  "ImageComments": "Unaliased MB4/PE3/LB",
  "ImageOrientationPatientDICOM": [0.995549, 0.0849325, 0.0408477, -0.0619369, 0.9163, -0.395675],
  "ImageOrientationText": "Tra>Cor(-23.1)>Sag(4.1)",
  "ImageType": [
    "ORIGINAL",
    "PRIMARY",
    "P",
    "MB",
    "ND",
    "MOSAIC",
    "PHASE"
],
  "ImagingFrequency": 123.259,
  "InPlanePhaseEncodingDirectionDICOM": "COL",
  "InstitutionAddress": "Chemin Queen-Mary 4565,Montreal,District,CA,H3W 1W5",
  "InstitutionName": "IUGM",
  "InstitutionalDepartmentName": "Department",
  "MRAcquisitionType": "2D",
  "MagneticFieldStrength": 3,
  "Manufacturer": "Siemens",
  "ManufacturersModelName": "Prisma_fit",
  "MatrixCoilMode": "SENSE",
  "Modality": "MR",
  "MultibandAccelerationFactor": 4,
  "PartialFourier": 1,
  "PatientPosition": "HFS",
  "PercentPhaseFOV": 100,
  "PercentSampling": 100,
  "PhaseEncodingDirection": "j",
  "PhaseEncodingSteps": 104,
  "PhaseResolution": 1,
  "PixelBandwidth": 2290,
  "ProcedureStepDescription": "games^mario",
  "ProtocolName": "func_task-mario_run-02",
  "PulseSequenceDetails": "%CustomerSeq%\\cmrr_mbep2d_bold",
  "ReceiveCoilActiveElements": "HC1-7;NC1,2",
  "ReceiveCoilName": "HeadNeck_64",
  "ReconMatrixPE": 104,
  "RepetitionTime": 1.49,
  "SAR": 0.0618058,
  "ScanOptions": "FS",
  "ScanningSequence": "EP",
  "SequenceName": "epfid2d1_104",
  "SequenceVariant": "SK\\SS",
  "SeriesDescription": "func_task-mario_run-02",
  "SeriesNumber": 14,
  "ShimSetting": [635, -7187, -8822, 591, 89, -24, -62, -5],
  "SliceThickness": 2,
  "SliceTiming": [0, 0.785, 0.1, 0.8825, 0.1975, 0.98, 0.295, 1.0775, 0.3925, 1.1775, 0.49, 1.275, 0.59, 1.3725, 0.6875, 0, 0.785, 0.1, 0.8825, 0.1975, 0.98, 0.295, 1.0775, 0.3925, 1.1775, 0.49, 1.275, 0.59, 1.3725, 0.6875, 0, 0.785, 0.1, 0.8825, 0.1975, 0.98, 0.295, 1.0775, 0.3925, 1.1775, 0.49, 1.275, 0.59, 1.3725, 0.6875, 0, 0.785, 0.1, 0.8825, 0.1975, 0.98, 0.295, 1.0775, 0.3925, 1.1775, 0.49, 1.275, 0.59, 1.3725, 0.6875],
  "SoftwareVersions": "syngo MR E11",
  "SpacingBetweenSlices": 2,
  "StationName": "MRC35049",
  "TaskName": "mario",
  "TotalReadoutTime": 0.0576811,
  "TxRefAmp": 303.852,
  "WipMemBlock": "e52d6166-ec52-4b32-a1ca-dab730dc4ec5||Sequence: R016 ve11c/master r/e634e98; Dec 19 2017 11:00:25 by eja",
  "dcmmeta_affine": [
    [-1.991098165512085, -0.12387380748987198, 0.14206887781620026, 108.3235855102539],
    [-0.16986507177352905, 1.8325992822647095, -0.7827680110931396, -48.03376388549805],
    [0.08169542998075485, 0.7913501858711243, 1.8349634408950806, -65.2478256225586],
    [0.0, 0.0, 0.0, 1.0]
],
  "dcmmeta_reorient_transform": [
    [0.0, -1.0, 0.0, 103.0],
    [1.0, 0.0, 0.0, 0.0],
    [0.0, 0.0, 1.0, 0.0],
    [0.0, 0.0, 0.0, 1.0]
],
  "dcmmeta_shape": [104, 104, 60, 454],
  "dcmmeta_slice_dim": 2,
  "dcmmeta_version": 0.6,
  "global": {
    "const": {
      "AcquisitionMatrix": [104, 0, 0, 104],
      "AngioFlag": "N",
      "BitsAllocated": 16,
      "BitsStored": 16,
      "BodyPartExamined": "BRAIN",
      "Columns": 832,
      "EchoNumbers": 1,
      "EchoTime": 37.0,
      "EchoTrainLength": 104,
      "FlipAngle": 52.0,
      "HighBit": 15,
      "ImageOrientationPatient": [0.99554905887121, 0.08493253482423, 0.04084771608028, -0.0619369041187, 0.91629963954316, -0.3956751072298],
      "ImagePositionPatient": [-775.23423191207, -869.62098663959, 274.57558705294],
      "ImageType": [
        "ORIGINAL",
        "PRIMARY",
        "P",
        "MB",
        "ND",
        "MOSAIC"
],
      "ImagedNucleus": "1H",
      "ImagingFrequency": 123.258877,
      "InPlanePhaseEncodingDirection": "COL",
      "LargestImagePixelValue": 4095,
      "MRAcquisitionType": "2D",
      "MagneticFieldStrength": 3.0,
      "Manufacturer": "SIEMENS",
      "ManufacturerModelName": "Prisma_fit",
      "Modality": "MR",
      "NumberOfAverages": 1.0,
      "NumberOfPhaseEncodingSteps": 104,
      "PercentPhaseFieldOfView": 100.0,
      "PercentSampling": 100.0,
      "PerformedProcedureStepStartTime": "165225.117000",
      "PhotometricInterpretation": "MONOCHROME2",
      "PixelBandwidth": 2290.0,
      "PixelRepresentation": 0,
      "PixelSpacing": [2.0, 2.0],
      "ProtocolName": "func_task-mario_run-02",
      "RepetitionTime": 1490.0,
      "RescaleIntercept": -4096.0,
      "RescaleSlope": 2.0,
      "RescaleType": "US",
      "Rows": 832,
      "SAR": 0.06180577625373,
      "SamplesPerPixel": 1,
      "ScanOptions": "FS",
      "ScanningSequence": "EP",
      "SequenceName": "epfid2d1_104",
      "SequenceVariant": [
        "SK",
        "SS"
],
      "SeriesDescription": "func_task-mario_run-02",
      "SeriesNumber": 14,
      "SeriesTime": "172701.333000",
      "SliceLocation": -33.369335414352,
      "SliceThickness": 2.0,
      "SmallestImagePixelValue": 0,
      "SoftwareVersions": "syngo MR E11",
      "SpacingBetweenSlices": 2.0000000162907,
      "SpecificCharacterSet": "ISO_IR 100",
      "StudyID": "1",
      "StudyTime": "165225.004000",
      "TransmitCoilName": "Body",
      "VariableFlipAngleFlag": "N",
      "WindowCenterWidthExplanation": "Algo1",
      "dBdt": 0.0},
    "slices": {}
  },
  "time": {
    "samples": {
      "AcquisitionNumber": [1, 2, 3, 4, 5, 6, 7, 8, 9, 10, 11, 12, 13, 14, 15, 16, 17, 18, 19, 20, 21, 22, 23, 24, 25, 26, 27, 28, 29, 30, 31, 32, 33, 34, 35, 36, 37, 38, 39, 40, 41, 42, 43, 44, 45, 46, 47, 48, 49, 50, 51, 52, 53, 54, 55, 56, 57, 58, 59, 60, 61, 62, 63, 64, 65, 66, 67, 68, 69, 70, 71, 72, 73, 74, 75, 76, 77, 78, 79, 80, 81, 82, 83, 84, 85, 86, 87, 88, 89, 90, 91, 92, 93, 94, 95, 96, 97, 98, 99, 100, 101, 102, 103, 104, 105, 106, 107, 108, 109, 110, 111, 112, 113, 114, 115, 116, 117, 118, 119, 120, 121, 122, 123, 124, 125, 126, 127, 128, 129, 130, 131, 132, 133, 134, 135, 136, 137, 138, 139, 140, 141, 142, 143, 144, 145, 146, 147, 148, 149, 150, 151, 152, 153, 154, 155, 156, 157, 158, 159, 160, 161, 162, 163, 164, 165, 166, 167, 168, 169, 170, 171, 172, 173, 174, 175, 176, 177, 178, 179, 180, 181, 182, 183, 184, 185, 186, 187, 188, 189, 190, 191, 192, 193, 194, 195, 196, 197, 198, 199, 200, 201, 202, 203, 204, 205, 206, 207, 208, 209, 210, 211, 212, 213, 214, 215, 216, 217, 218, 219, 220, 221, 222, 223, 224, 225, 226, 227, 228, 229, 230, 231, 232, 233, 234, 235, 236, 237, 238, 239, 240, 241, 242, 243, 244, 245, 246, 247, 248, 249, 250, 251, 252, 253, 254, 255, 256, 257, 258, 259, 260, 261, 262, 263, 264, 265, 266, 267, 268, 269, 270, 271, 272, 273, 274, 275, 276, 277, 278, 279, 280, 281, 282, 283, 284, 285, 286, 287, 288, 289, 290, 291, 292, 293, 294, 295, 296, 297, 298, 299, 300, 301, 302, 303, 304, 305, 306, 307, 308, 309, 310, 311, 312, 313, 314, 315, 316, 317, 318, 319, 320, 321, 322, 323, 324, 325, 326, 327, 328, 329, 330, 331, 332, 333, 334, 335, 336, 337, 338, 339, 340, 341, 342, 343, 344, 345, 346, 347, 348, 349, 350, 351, 352, 353, 354, 355, 356, 357, 358, 359, 360, 361, 362, 363, 364, 365, 366, 367, 368, 369, 370, 371, 372, 373, 374, 375, 376, 377, 378, 379, 380, 381, 382, 383, 384, 385, 386, 387, 388, 389, 390, 391, 392, 393, 394, 395, 396, 397, 398, 399, 400, 401, 402, 403, 404, 405, 406, 407, 408, 409, 410, 411, 412, 413, 414, 415, 416, 417, 418, 419, 420, 421, 422, 423, 424, 425, 426, 427, 428, 429, 430, 431, 432, 433, 434, 435, 436, 437, 438, 439, 440, 441, 442, 443, 444, 445, 446, 447, 448, 449, 450, 451, 452, 453, 454],
      "AcquisitionTime": ["172542.657500", "172544.147500", "172545.637500", "172547.127500", "172548.617500", "172550.107500", "172551.597500", "172553.087500", "172554.577500", "172556.067500", "172557.557500", "172559.047500", "172600.537500", "172602.027500", "172603.517500", "172605.007500", "172606.497500", "172607.987500", "172609.477500", "172610.967500", "172612.457500", "172613.947500", "172615.437500", "172616.927500", "172618.417500", "172619.907500", "172621.397500", "172622.887500", "172624.377500", "172625.867500", "172627.357500", "172628.847500", "172630.337500", "172631.827500", "172633.317500", "172634.807500", "172636.297500", "172637.787500", "172639.277500", "172640.767500", "172642.257500", "172643.747500", "172645.237500", "172646.727500", "172648.217500", "172649.707500", "172651.197500", "172652.687500", "172654.177500", "172655.667500", "172657.157500", "172658.647500", "172700.137500", "172701.627500", "172703.117500", "172704.607500", "172706.097500", "172707.587500", "172709.077500", "172710.567500", "172712.057500", "172713.547500", "172715.037500", "172716.527500", "172718.017500", "172719.507500", "172720.997500", "172722.487500", "172723.977500", "172725.467500", "172726.957500", "172728.447500", "172729.937500", "172731.427500", "172732.917500", "172734.407500", "172735.897500", "172737.387500", "172738.877500", "172740.367500", "172741.857500", "172743.347500", "172744.837500", "172746.327500", "172747.817500", "172749.307500", "172750.797500", "172752.287500", "172753.777500", "172755.267500", "172756.757500", "172758.247500", "172759.737500", "172801.227500", "172802.717500", "172804.207500", "172805.697500", "172807.187500", "172808.677500", "172810.167500", "172811.657500", "172813.147500", "172814.637500", "172816.127500", "172817.617500", "172819.107500", "172820.597500", "172822.087500", "172823.577500", "172825.067500", "172826.557500", "172828.047500", "172829.537500", "172831.027500", "172832.517500", "172834.007500", "172835.497500", "172836.987500", "172838.477500", "172839.967500", "172841.457500", "172842.947500", "172844.437500", "172845.927500", "172847.417500", "172848.907500", "172850.397500", "172851.887500", "172853.377500", "172854.867500", "172856.357500", "172857.847500", "172859.337500", "172900.827500", "172902.317500", "172903.807500", "172905.297500", "172906.787500", "172908.277500", "172909.767500", "172911.257500", "172912.747500", "172914.237500", "172915.727500", "172917.217500", "172918.707500", "172920.197500", "172921.687500", "172923.177500", "172924.667500", "172926.157500", "172927.647500", "172929.137500", "172930.627500", "172932.117500", "172933.607500", "172935.097500", "172936.587500", "172938.077500", "172939.567500", "172941.057500", "172942.547500", "172944.037500", "172945.527500", "172947.017500", "172948.507500", "172949.997500", "172951.487500", "172952.977500", "172954.467500", "172955.957500", "172957.447500", "172958.937500", "173000.427500", "173001.917500", "173003.407500", "173004.897500", "173006.387500", "173007.877500", "173009.367500", "173010.857500", "173012.347500", "173013.837500", "173015.327500", "173016.817500", "173018.307500", "173019.797500", "173021.287500", "173022.777500", "173024.267500", "173025.757500", "173027.247500", "173028.737500", "173030.227500", "173031.717500", "173033.207500", "173034.697500", "173036.187500", "173037.677500", "173039.167500", "173040.657500", "173042.147500", "173043.637500", "173045.127500", "173046.617500", "173048.107500", "173049.597500", "173051.087500", "173052.577500", "173054.067500", "173055.557500", "173057.047500", "173058.537500", "173100.027500", "173101.517500", "173103.007500", "173104.497500", "173105.987500", "173107.477500", "173108.967500", "173110.457500", "173111.947500", "173113.437500", "173114.927500", "173116.417500", "173117.907500", "173119.397500", "173120.887500", "173122.377500", "173123.867500", "173125.357500", "173126.847500", "173128.337500", "173129.827500", "173131.317500", "173132.807500", "173134.297500", "173135.787500", "173137.277500", "173138.767500", "173140.257500", "173141.747500", "173143.237500", "173144.727500", "173146.217500", "173147.707500", "173149.197500", "173150.687500", "173152.177500", "173153.667500", "173155.157500", "173156.647500", "173158.137500", "173159.627500", "173201.117500", "173202.607500", "173204.097500", "173205.587500", "173207.077500", "173208.567500", "173210.057500", "173211.547500", "173213.037500", "173214.527500", "173216.017500", "173217.507500", "173218.997500", "173220.487500", "173221.977500", "173223.467500", "173224.957500", "173226.447500", "173227.937500", "173229.427500", "173230.917500", "173232.407500", "173233.897500", "173235.387500", "173236.877500", "173238.367500", "173239.857500", "173241.347500", "173242.837500", "173244.327500", "173245.817500", "173247.307500", "173248.797500", "173250.287500", "173251.777500", "173253.267500", "173254.757500", "173256.247500", "173257.737500", "173259.227500", "173300.717500", "173302.207500", "173303.697500", "173305.187500", "173306.677500", "173308.167500", "173309.657500", "173311.147500", "173312.637500", "173314.127500", "173315.617500", "173317.107500", "173318.597500", "173320.087500", "173321.577500", "173323.067500", "173324.557500", "173326.047500", "173327.537500", "173329.027500", "173330.517500", "173332.007500", "173333.497500", "173334.987500", "173336.477500", "173337.967500", "173339.457500", "173340.947500", "173342.437500", "173343.927500", "173345.417500", "173346.907500", "173348.397500", "173349.887500", "173351.377500", "173352.867500", "173354.357500", "173355.847500", "173357.337500", "173358.827500", "173400.317500", "173401.807500", "173403.297500", "173404.787500", "173406.277500", "173407.767500", "173409.257500", "173410.747500", "173412.237500", "173413.727500", "173415.217500", "173416.707500", "173418.197500", "173419.687500", "173421.177500", "173422.667500", "173424.157500", "173425.647500", "173427.137500", "173428.627500", "173430.117500", "173431.607500", "173433.097500", "173434.587500", "173436.077500", "173437.567500", "173439.057500", "173440.547500", "173442.037500", "173443.527500", "173445.017500", "173446.507500", "173447.997500", "173449.487500", "173450.977500", "173452.467500", "173453.957500", "173455.447500", "173456.937500", "173458.427500", "173459.917500", "173501.407500", "173502.897500", "173504.387500", "173505.877500", "173507.367500", "173508.857500", "173510.347500", "173511.837500", "173513.327500", "173514.817500", "173516.307500", "173517.797500", "173519.287500", "173520.777500", "173522.267500", "173523.757500", "173525.247500", "173526.737500", "173528.227500", "173529.717500", "173531.207500", "173532.697500", "173534.187500", "173535.677500", "173537.167500", "173538.657500", "173540.147500", "173541.637500", "173543.127500", "173544.617500", "173546.107500", "173547.597500", "173549.087500", "173550.577500", "173552.067500", "173553.557500", "173555.047500", "173556.537500", "173558.027500", "173559.517500", "173601.007500", "173602.497500", "173603.987500", "173605.477500", "173606.967500", "173608.457500", "173609.947500", "173611.437500", "173612.927500", "173614.417500", "173615.907500", "173617.397500", "173618.887500", "173620.377500", "173621.867500", "173623.357500", "173624.847500", "173626.337500", "173627.827500", "173629.317500", "173630.807500", "173632.297500", "173633.787500", "173635.277500", "173636.767500", "173638.257500", "173639.747500", "173641.237500", "173642.727500", "173644.217500", "173645.707500", "173647.197500", "173648.687500", "173650.177500", "173651.667500", "173653.157500", "173654.647500", "173656.137500", "173657.627500"],
      "ContentTime": ["172701.335000", "172701.338000", "172701.340000", "172701.343000", "172701.345000", "172701.348000", "172701.350000", "172701.353000", "172701.364000", "172701.367000", "172701.369000", "172701.371000", "172701.374000", "172701.376000", "172701.379000", "172701.381000", "172701.384000", "172701.386000", "172701.389000", "172701.391000", "172701.393000", "172701.396000", "172701.398000", "172701.401000", "172721.264000", "172721.267000", "172721.269000", "172721.272000", "172721.274000", "172721.277000", "172721.279000", "172721.282000", "172721.284000", "172721.287000", "172721.289000", "172721.291000", "172721.294000", "172721.296000", "172721.299000", "172721.301000", "172721.304000", "172721.306000", "172721.309000", "172721.311000", "172721.315000", "172741.263000", "172741.266000", "172741.268000", "172741.270000", "172741.273000", "172741.275000", "172741.278000", "172741.280000", "172741.283000", "172741.285000", "172741.288000", "172741.290000", "172741.292000", "172741.295000", "172741.297000", "172741.300000", "172741.302000", "172741.305000", "172741.307000", "172741.310000", "172801.256000", "172801.259000", "172801.261000", "172801.264000", "172801.266000", "172801.269000", "172801.271000", "172801.274000", "172801.276000", "172801.279000", "172801.285000", "172801.288000", "172801.290000", "172801.293000", "172801.295000", "172801.298000", "172801.300000", "172801.303000", "172801.305000", "172801.308000", "172821.261000", "172821.264000", "172821.266000", "172821.269000", "172821.271000", "172821.274000", "172821.276000", "172821.278000", "172821.281000", "172821.283000", "172821.286000", "172821.288000", "172821.291000", "172821.293000", "172821.296000", "172821.298000", "172821.302000", "172821.305000", "172821.307000", "172821.309000", "172901.605000", "172901.608000", "172901.610000", "172901.612000", "172901.615000", "172901.617000", "172901.620000", "172901.622000", "172901.625000", "172901.627000", "172901.630000", "172901.632000", "172901.634000", "172901.637000", "172901.639000", "172901.642000", "172901.644000", "172901.647000", "172901.649000", "172901.651000", "172901.654000", "172901.656000", "172901.659000", "172901.661000", "172901.664000", "172901.666000", "172901.669000", "172941.287000", "172941.289000", "172941.292000", "172941.295000", "172941.297000", "172941.299000", "172941.302000", "172941.304000", "172941.307000", "172941.309000", "172941.312000", "172941.314000", "172941.317000", "172941.319000", "172941.322000", "172941.324000", "172941.327000", "172941.329000", "172941.332000", "172941.334000", "172941.337000", "172941.339000", "172941.342000", "172941.344000", "172941.347000", "172941.349000", "172941.352000", "173021.300000", "173021.303000", "173021.305000", "173021.308000", "173021.310000", "173021.313000", "173021.315000", "173021.318000", "173021.320000", "173021.323000", "173021.325000", "173021.328000", "173021.330000", "173021.333000", "173021.335000", "173021.338000", "173021.340000", "173021.342000", "173021.345000", "173021.347000", "173021.350000", "173021.352000", "173021.354000", "173021.357000", "173021.359000", "173021.362000", "173021.364000", "173101.309000", "173101.311000", "173101.314000", "173101.316000", "173101.319000", "173101.321000", "173101.324000", "173101.326000", "173101.329000", "173101.331000", "173101.334000", "173101.336000", "173101.339000", "173101.341000", "173101.343000", "173101.346000", "173101.348000", "173101.351000", "173101.353000", "173101.356000", "173101.358000", "173101.361000", "173101.363000", "173101.366000", "173101.368000", "173101.371000", "173101.373000", "173141.293000", "173141.296000", "173141.298000", "173141.301000", "173141.303000", "173141.306000", "173141.308000", "173141.311000", "173141.313000", "173141.316000", "173141.318000", "173141.321000", "173141.323000", "173141.325000", "173141.328000", "173141.330000", "173141.333000", "173141.335000", "173141.338000", "173141.340000", "173141.343000", "173141.345000", "173141.348000", "173141.350000", "173141.353000", "173141.355000", "173141.358000", "173221.295000", "173221.298000", "173221.300000", "173221.303000", "173221.305000", "173221.308000", "173221.310000", "173221.313000", "173221.315000", "173221.318000", "173221.320000", "173221.323000", "173221.325000", "173221.328000", "173221.330000", "173221.333000", "173221.335000", "173221.338000", "173221.340000", "173221.343000", "173221.345000", "173221.347000", "173221.350000", "173221.352000", "173221.355000", "173221.357000", "173221.360000", "173301.292000", "173301.295000", "173301.298000", "173301.300000", "173301.303000", "173301.305000", "173301.308000", "173301.310000", "173301.312000", "173301.315000", "173301.317000", "173301.320000", "173301.322000", "173301.325000", "173301.327000", "173301.330000", "173301.332000", "173301.335000", "173301.337000", "173301.340000", "173301.342000", "173301.344000", "173301.347000", "173301.349000", "173301.352000", "173301.354000", "173341.307000", "173341.309000", "173341.312000", "173341.314000", "173341.317000", "173341.319000", "173341.322000", "173341.324000", "173341.326000", "173341.329000", "173341.331000", "173341.334000", "173341.336000", "173341.339000", "173341.341000", "173341.344000", "173341.346000", "173341.348000", "173341.351000", "173341.354000", "173341.356000", "173341.359000", "173341.361000", "173341.364000", "173341.366000", "173341.368000", "173341.371000", "173421.297000", "173421.300000", "173421.302000", "173421.305000", "173421.307000", "173421.310000", "173421.312000", "173421.315000", "173421.317000", "173421.320000", "173421.322000", "173421.325000", "173421.327000", "173421.330000", "173421.332000", "173421.334000", "173421.337000", "173421.339000", "173421.342000", "173421.344000", "173421.347000", "173421.349000", "173421.352000", "173421.354000", "173421.357000", "173421.359000", "173421.362000", "173501.282000", "173501.285000", "173501.287000", "173501.290000", "173501.292000", "173501.295000", "173501.297000", "173501.299000", "173501.302000", "173501.304000", "173501.307000", "173501.309000", "173501.312000", "173501.314000", "173501.317000", "173501.319000", "173501.322000", "173501.324000", "173501.327000", "173501.329000", "173501.332000", "173501.334000", "173501.337000", "173501.339000", "173501.342000", "173501.344000", "173501.347000", "173541.297000", "173541.299000", "173541.302000", "173541.304000", "173541.307000", "173541.309000", "173541.312000", "173541.314000", "173541.317000", "173541.319000", "173541.322000", "173541.324000", "173541.327000", "173541.329000", "173541.332000", "173541.334000", "173541.337000", "173541.339000", "173541.342000", "173541.344000", "173541.346000", "173541.349000", "173541.351000", "173541.354000", "173541.356000", "173541.359000", "173541.361000", "173621.299000", "173621.302000", "173621.304000", "173621.307000", "173621.309000", "173621.312000", "173621.314000", "173621.316000", "173621.319000", "173621.321000", "173621.324000", "173621.326000", "173621.329000", "173621.331000", "173621.334000", "173621.336000", "173621.339000", "173621.341000", "173621.343000", "173621.346000", "173621.348000", "173621.351000", "173621.353000", "173621.356000", "173621.358000", "173621.361000", "173621.363000", "173700.446000", "173700.449000", "173700.452000", "173700.454000", "173700.457000", "173700.459000", "173700.462000", "173700.464000", "173700.467000", "173700.469000", "173700.472000", "173700.475000", "173700.477000", "173700.480000", "173700.482000", "173700.484000", "173700.487000", "173700.489000", "173700.492000", "173700.495000", "173700.497000", "173700.499000", "173700.502000", "173700.504000", "173700.507000", "173700.518000"],
