{
  "AcquisitionMatrixPE": 104,
  "AcquisitionNumber": 1,
  "AcquisitionTime": "17:38:30.430000",
  "BandwidthPerPixelPhaseEncode": 17.17,
  "BaseResolution": 104,
  "BodyPartExamined": "BRAIN",
  "CoilCombinationMethod": "Sum of Squares",
  "ConsistencyInfo": "N4_VE11C_LATEST_20160120",
  "ConversionSoftware": "dcm2niix",
  "ConversionSoftwareVersion": "v1.0.20211006",
  "DerivedVendorReportedEchoSpacing": 0.000560011,
  "DeviceSerialNumber": "167006",
  "DwellTime": 2.1e-06,
  "EchoTime": 0.037,
  "EchoTrainLength": 104,
  "EffectiveEchoSpacing": 0.000560011,
  "FlipAngle": 52,
  "HeudiconvVersion": "0.10.0",
  "ImageComments": "Unaliased MB4/PE3/LB",
  "ImageOrientationPatientDICOM": [0.995549, 0.0849325, 0.0408477, -0.0619369, 0.9163, -0.395675],
  "ImageOrientationText": "Tra>Cor(-23.1)>Sag(4.1)",
  "ImageType": [
    "ORIGINAL",
    "PRIMARY",
    "M",
    "MB",
    "ND",
    "MOSAIC"
],
  "ImagingFrequency": 123.259,
  "InPlanePhaseEncodingDirectionDICOM": "COL",
  "InstitutionAddress": "Chemin Queen-Mary 4565,Montreal,District,CA,H3W 1W5",
  "InstitutionName": "IUGM",
  "InstitutionalDepartmentName": "Department",
  "MRAcquisitionType": "2D",
  "MagneticFieldStrength": 3,
  "Manufacturer": "Siemens",
  "ManufacturersModelName": "Prisma_fit",
  "MatrixCoilMode": "SENSE",
  "Modality": "MR",
  "MultibandAccelerationFactor": 4,
  "PartialFourier": 1,
  "PatientPosition": "HFS",
  "PercentPhaseFOV": 100,
  "PercentSampling": 100,
  "PhaseEncodingDirection": "j",
  "PhaseEncodingSteps": 104,
  "PhaseResolution": 1,
  "PixelBandwidth": 2290,
  "ProcedureStepDescription": "games^mario",
  "ProtocolName": "func_task-mario_run-03",
  "PulseSequenceDetails": "%CustomerSeq%\\cmrr_mbep2d_bold",
  "ReceiveCoilActiveElements": "HC1-7;NC1,2",
  "ReceiveCoilName": "HeadNeck_64",
  "ReconMatrixPE": 104,
  "RepetitionTime": 1.49,
  "SAR": 0.0618058,
  "ScanOptions": "FS",
  "ScanningSequence": "EP",
  "SequenceName": "epfid2d1_104",
  "SequenceVariant": "SK\\SS",
  "SeriesDescription": "func_task-mario_run-03",
  "SeriesNumber": 16,
  "ShimSetting": [635, -7187, -8822, 591, 89, -24, -62, -5],
  "SliceThickness": 2,
  "SliceTiming": [0, 0.785, 0.0975, 0.8825, 0.1975, 0.98, 0.295, 1.0775, 0.3925, 1.1775, 0.49, 1.275, 0.5875, 1.3725, 0.6875, 0, 0.785, 0.0975, 0.8825, 0.1975, 0.98, 0.295, 1.0775, 0.3925, 1.1775, 0.49, 1.275, 0.5875, 1.3725, 0.6875, 0, 0.785, 0.0975, 0.8825, 0.1975, 0.98, 0.295, 1.0775, 0.3925, 1.1775, 0.49, 1.275, 0.5875, 1.3725, 0.6875, 0, 0.785, 0.0975, 0.8825, 0.1975, 0.98, 0.295, 1.0775, 0.3925, 1.1775, 0.49, 1.275, 0.5875, 1.3725, 0.6875],
  "SoftwareVersions": "syngo MR E11",
  "SpacingBetweenSlices": 2,
  "StationName": "MRC35049",
  "TaskName": "mario",
  "TotalReadoutTime": 0.0576811,
  "TxRefAmp": 303.852,
  "WipMemBlock": "1802baf8-c60c-4f5c-acda-ee6f9224637e||Sequence: R016 ve11c/master r/e634e98; Dec 19 2017 11:00:25 by eja",
  "dcmmeta_affine": [
    [-1.991098165512085, -0.12387380748987198, 0.14206887781620026, 108.3235855102539],
    [-0.16986507177352905, 1.8325992822647095, -0.7827680110931396, -48.03376388549805],
    [0.08169542998075485, 0.7913501858711243, 1.8349634408950806, -65.2478256225586],
    [0.0, 0.0, 0.0, 1.0]
],
  "dcmmeta_reorient_transform": [
    [0.0, -1.0, 0.0, 103.0],
    [1.0, 0.0, 0.0, 0.0],
    [0.0, 0.0, 1.0, 0.0],
    [0.0, 0.0, 0.0, 1.0]
],
  "dcmmeta_shape": [104, 104, 60, 430],
  "dcmmeta_slice_dim": 2,
  "dcmmeta_version": 0.6,
  "global": {
    "const": {
      "AcquisitionMatrix": [104, 0, 0, 104],
      "AngioFlag": "N",
      "BitsAllocated": 16,
      "BitsStored": 16,
      "BodyPartExamined": "BRAIN",
      "Columns": 832,
      "EchoNumbers": 1,
      "EchoTime": 37.0,
      "EchoTrainLength": 104,
      "FlipAngle": 52.0,
      "HighBit": 15,
      "ImageOrientationPatient": [0.99554905887121, 0.08493253482423, 0.04084771608028, -0.0619369041187, 0.91629963954316, -0.3956751072298],
      "ImagePositionPatient": [-775.23423191207, -869.62098663959, 274.57558705294],
      "ImageType": [
        "ORIGINAL",
        "PRIMARY",
        "M",
        "MB",
        "ND",
        "MOSAIC"
],
      "ImagedNucleus": "1H",
      "ImagingFrequency": 123.258887,
      "InPlanePhaseEncodingDirection": "COL",
      "MRAcquisitionType": "2D",
      "MagneticFieldStrength": 3.0,
      "Manufacturer": "SIEMENS",
      "ManufacturerModelName": "Prisma_fit",
      "Modality": "MR",
      "NumberOfAverages": 1.0,
      "NumberOfPhaseEncodingSteps": 104,
      "PercentPhaseFieldOfView": 100.0,
      "PercentSampling": 100.0,
      "PerformedProcedureStepStartTime": "165225.117000",
      "PhotometricInterpretation": "MONOCHROME2",
      "PixelBandwidth": 2290.0,
      "PixelRepresentation": 0,
      "PixelSpacing": [2.0, 2.0],
      "ProtocolName": "func_task-mario_run-03",
      "RepetitionTime": 1490.0,
      "Rows": 832,
      "SAR": 0.06180577625373,
      "SamplesPerPixel": 1,
      "ScanOptions": "FS",
      "ScanningSequence": "EP",
      "SequenceName": "epfid2d1_104",
      "SequenceVariant": [
        "SK",
        "SS"
],
      "SeriesDescription": "func_task-mario_run-03",
      "SeriesNumber": 16,
      "SeriesTime": "174004.832000",
      "SliceLocation": -33.369335414352,
      "SliceThickness": 2.0,
      "SmallestImagePixelValue": 0,
      "SoftwareVersions": "syngo MR E11",
      "SpacingBetweenSlices": 2.0000000162907,
      "SpecificCharacterSet": "ISO_IR 100",
      "StudyID": "1",
      "StudyTime": "165225.004000",
      "TransmitCoilName": "Body",
      "VariableFlipAngleFlag": "N",
      "WindowCenterWidthExplanation": "Algo1",
      "dBdt": 0.0},
    "slices": {}
  },
  "time": {
    "samples": {
      "AcquisitionNumber": [1, 2, 3, 4, 5, 6, 7, 8, 9, 10, 11, 12, 13, 14, 15, 16, 17, 18, 19, 20, 21, 22, 23, 24, 25, 26, 27, 28, 29, 30, 31, 32, 33, 34, 35, 36, 37, 38, 39, 40, 41, 42, 43, 44, 45, 46, 47, 48, 49, 50, 51, 52, 53, 54, 55, 56, 57, 58, 59, 60, 61, 62, 63, 64, 65, 66, 67, 68, 69, 70, 71, 72, 73, 74, 75, 76, 77, 78, 79, 80, 81, 82, 83, 84, 85, 86, 87, 88, 89, 90, 91, 92, 93, 94, 95, 96, 97, 98, 99, 100, 101, 102, 103, 104, 105, 106, 107, 108, 109, 110, 111, 112, 113, 114, 115, 116, 117, 118, 119, 120, 121, 122, 123, 124, 125, 126, 127, 128, 129, 130, 131, 132, 133, 134, 135, 136, 137, 138, 139, 140, 141, 142, 143, 144, 145, 146, 147, 148, 149, 150, 151, 152, 153, 154, 155, 156, 157, 158, 159, 160, 161, 162, 163, 164, 165, 166, 167, 168, 169, 170, 171, 172, 173, 174, 175, 176, 177, 178, 179, 180, 181, 182, 183, 184, 185, 186, 187, 188, 189, 190, 191, 192, 193, 194, 195, 196, 197, 198, 199, 200, 201, 202, 203, 204, 205, 206, 207, 208, 209, 210, 211, 212, 213, 214, 215, 216, 217, 218, 219, 220, 221, 222, 223, 224, 225, 226, 227, 228, 229, 230, 231, 232, 233, 234, 235, 236, 237, 238, 239, 240, 241, 242, 243, 244, 245, 246, 247, 248, 249, 250, 251, 252, 253, 254, 255, 256, 257, 258, 259, 260, 261, 262, 263, 264, 265, 266, 267, 268, 269, 270, 271, 272, 273, 274, 275, 276, 277, 278, 279, 280, 281, 282, 283, 284, 285, 286, 287, 288, 289, 290, 291, 292, 293, 294, 295, 296, 297, 298, 299, 300, 301, 302, 303, 304, 305, 306, 307, 308, 309, 310, 311, 312, 313, 314, 315, 316, 317, 318, 319, 320, 321, 322, 323, 324, 325, 326, 327, 328, 329, 330, 331, 332, 333, 334, 335, 336, 337, 338, 339, 340, 341, 342, 343, 344, 345, 346, 347, 348, 349, 350, 351, 352, 353, 354, 355, 356, 357, 358, 359, 360, 361, 362, 363, 364, 365, 366, 367, 368, 369, 370, 371, 372, 373, 374, 375, 376, 377, 378, 379, 380, 381, 382, 383, 384, 385, 386, 387, 388, 389, 390, 391, 392, 393, 394, 395, 396, 397, 398, 399, 400, 401, 402, 403, 404, 405, 406, 407, 408, 409, 410, 411, 412, 413, 414, 415, 416, 417, 418, 419, 420, 421, 422, 423, 424, 425, 426, 427, 428, 429, 430],
      "AcquisitionTime": ["173830.430000", "173831.920000", "173833.410000", "173834.900000", "173836.390000", "173837.880000", "173839.370000", "173840.860000", "173842.350000", "173843.840000", "173845.330000", "173846.820000", "173848.310000", "173849.800000", "173851.290000", "173852.780000", "173854.270000", "173855.760000", "173857.250000", "173858.740000", "173900.230000", "173901.720000", "173903.210000", "173904.700000", "173906.190000", "173907.680000", "173909.170000", "173910.660000", "173912.150000", "173913.640000", "173915.130000", "173916.620000", "173918.110000", "173919.600000", "173921.090000", "173922.580000", "173924.070000", "173925.560000", "173927.050000", "173928.540000", "173930.030000", "173931.520000", "173933.010000", "173934.500000", "173935.990000", "173937.480000", "173938.970000", "173940.460000", "173941.950000", "173943.440000", "173944.930000", "173946.420000", "173947.910000", "173949.400000", "173950.890000", "173952.380000", "173953.870000", "173955.360000", "173956.850000", "173958.340000", "173959.830000", "174001.320000", "174002.810000", "174004.300000", "174005.790000", "174007.280000", "174008.770000", "174010.260000", "174011.750000", "174013.240000", "174014.730000", "174016.220000", "174017.710000", "174019.200000", "174020.690000", "174022.180000", "174023.670000", "174025.160000", "174026.650000", "174028.140000", "174029.630000", "174031.120000", "174032.610000", "174034.100000", "174035.590000", "174037.080000", "174038.570000", "174040.060000", "174041.550000", "174043.040000", "174044.530000", "174046.020000", "174047.510000", "174049.000000", "174050.490000", "174051.980000", "174053.470000", "174054.960000", "174056.450000", "174057.940000", "174059.430000", "174100.920000", "174102.410000", "174103.900000", "174105.390000", "174106.880000", "174108.370000", "174109.860000", "174111.350000", "174112.840000", "174114.330000", "174115.820000", "174117.310000", "174118.800000", "174120.290000", "174121.780000", "174123.270000", "174124.760000", "174126.250000", "174127.740000", "174129.230000", "174130.720000", "174132.210000", "174133.700000", "174135.190000", "174136.680000", "174138.170000", "174139.660000", "174141.150000", "174142.640000", "174144.130000", "174145.620000", "174147.110000", "174148.600000", "174150.090000", "174151.580000", "174153.070000", "174154.560000", "174156.050000", "174157.540000", "174159.030000", "174200.520000", "174202.010000", "174203.500000", "174204.990000", "174206.480000", "174207.970000", "174209.460000", "174210.950000", "174212.440000", "174213.930000", "174215.420000", "174216.910000", "174218.400000", "174219.890000", "174221.380000", "174222.870000", "174224.360000", "174225.850000", "174227.340000", "174228.830000", "174230.320000", "174231.810000", "174233.300000", "174234.790000", "174236.280000", "174237.770000", "174239.260000", "174240.750000", "174242.240000", "174243.730000", "174245.220000", "174246.710000", "174248.200000", "174249.690000", "174251.180000", "174252.670000", "174254.160000", "174255.650000", "174257.140000", "174258.630000", "174300.120000", "174301.610000", "174303.100000", "174304.590000", "174306.080000", "174307.570000", "174309.060000", "174310.550000", "174312.040000", "174313.530000", "174315.020000", "174316.510000", "174318.000000", "174319.490000", "174320.980000", "174322.470000", "174323.960000", "174325.450000", "174326.940000", "174328.430000", "174329.920000", "174331.410000", "174332.900000", "174334.390000", "174335.880000", "174337.370000", "174338.860000", "174340.350000", "174341.840000", "174343.330000", "174344.820000", "174346.310000", "174347.800000", "174349.290000", "174350.780000", "174352.270000", "174353.760000", "174355.250000", "174356.740000", "174358.230000", "174359.720000", "174401.210000", "174402.700000", "174404.190000", "174405.680000", "174407.170000", "174408.660000", "174410.150000", "174411.640000", "174413.130000", "174414.620000", "174416.110000", "174417.600000", "174419.090000", "174420.580000", "174422.070000", "174423.560000", "174425.050000", "174426.540000", "174428.030000", "174429.520000", "174431.010000", "174432.500000", "174433.990000", "174435.480000", "174436.970000", "174438.460000", "174439.950000", "174441.440000", "174442.930000", "174444.420000", "174445.910000", "174447.400000", "174448.890000", "174450.380000", "174451.870000", "174453.360000", "174454.850000", "174456.340000", "174457.830000", "174459.320000", "174500.810000", "174502.300000", "174503.790000", "174505.280000", "174506.770000", "174508.260000", "174509.750000", "174511.240000", "174512.730000", "174514.220000", "174515.710000", "174517.200000", "174518.690000", "174520.180000", "174521.670000", "174523.160000", "174524.650000", "174526.140000", "174527.630000", "174529.120000", "174530.610000", "174532.100000", "174533.590000", "174535.080000", "174536.570000", "174538.060000", "174539.550000", "174541.040000", "174542.530000", "174544.020000", "174545.510000", "174547.000000", "174548.490000", "174549.980000", "174551.470000", "174552.960000", "174554.450000", "174555.940000", "174557.430000", "174558.920000", "174600.410000", "174601.900000", "174603.390000", "174604.880000", "174606.370000", "174607.860000", "174609.350000", "174610.840000", "174612.330000", "174613.820000", "174615.310000", "174616.800000", "174618.290000", "174619.780000", "174621.270000", "174622.760000", "174624.250000", "174625.740000", "174627.230000", "174628.720000", "174630.210000", "174631.700000", "174633.190000", "174634.680000", "174636.170000", "174637.660000", "174639.150000", "174640.640000", "174642.130000", "174643.620000", "174645.110000", "174646.600000", "174648.090000", "174649.580000", "174651.070000", "174652.560000", "174654.050000", "174655.540000", "174657.030000", "174658.520000", "174700.010000", "174701.500000", "174702.990000", "174704.480000", "174705.970000", "174707.460000", "174708.950000", "174710.440000", "174711.930000", "174713.420000", "174714.910000", "174716.400000", "174717.890000", "174719.380000", "174720.870000", "174722.360000", "174723.850000", "174725.340000", "174726.830000", "174728.320000", "174729.810000", "174731.300000", "174732.790000", "174734.280000", "174735.770000", "174737.260000", "174738.750000", "174740.240000", "174741.730000", "174743.220000", "174744.710000", "174746.200000", "174747.690000", "174749.180000", "174750.670000", "174752.160000", "174753.650000", "174755.140000", "174756.630000", "174758.120000", "174759.610000", "174801.100000", "174802.590000", "174804.080000", "174805.570000", "174807.060000", "174808.550000", "174810.040000", "174811.530000", "174813.020000", "174814.510000", "174816.000000", "174817.490000", "174818.980000", "174820.470000", "174821.960000", "174823.450000", "174824.940000", "174826.430000", "174827.920000", "174829.410000", "174830.900000", "174832.390000", "174833.880000", "174835.370000", "174836.860000", "174838.350000", "174839.840000", "174841.330000", "174842.820000", "174844.310000", "174845.800000", "174847.290000", "174848.780000", "174850.270000", "174851.760000", "174853.250000", "174854.740000", "174856.230000", "174857.720000", "174859.210000", "174900.700000", "174902.190000", "174903.680000", "174905.170000", "174906.660000", "174908.150000", "174909.640000"],
      "ContentTime": ["174004.835000", "174004.839000", "174004.842000", "174004.845000", "174004.848000", "174004.852000", "174004.855000", "174004.860000", "174004.863000", "174004.867000", "174004.870000", "174004.873000", "174004.876000", "174004.885000", "174004.889000", "174004.892000", "174004.895000", "174004.898000", "174004.902000", "174004.905000", "174004.908000", "174004.911000", "174004.915000", "174004.918000", "174004.925000", "174004.928000", "174004.931000", "174004.935000", "174004.938000", "174004.941000", "174004.944000", "174004.948000", "174004.951000", "174004.954000", "174004.957000", "174004.961000", "174004.965000", "174004.968000", "174004.972000", "174024.787000", "174024.791000", "174024.794000", "174024.797000", "174024.801000", "174024.804000", "174024.807000", "174024.810000", "174024.814000", "174024.817000", "174024.820000", "174024.823000", "174024.827000", "174024.830000", "174024.833000", "174024.837000", "174024.840000", "174024.843000", "174024.854000", "174024.857000", "174044.787000", "174044.791000", "174044.794000", "174044.797000", "174044.800000", "174044.804000", "174044.807000", "174044.810000", "174044.814000", "174044.817000", "174044.820000", "174044.823000", "174044.827000", "174044.830000", "174044.833000", "174044.836000", "174044.840000", "174044.843000", "174044.846000", "174044.849000", "174104.787000", "174104.791000", "174104.794000", "174104.797000", "174104.801000", "174104.804000", "174104.807000", "174104.811000", "174104.814000", "174104.818000", "174104.821000", "174104.824000", "174104.828000", "174104.831000", "174104.834000", "174104.838000", "174104.841000", "174104.844000", "174104.847000", "174104.851000", "174144.788000", "174144.792000", "174144.796000", "174144.799000", "174144.802000", "174144.806000", "174144.809000", "174144.812000", "174144.815000", "174144.819000", "174144.822000", "174144.825000", "174144.829000", "174144.832000", "174144.835000", "174144.838000", "174144.842000", "174144.845000", "174144.848000", "174144.852000", "174144.864000", "174144.867000", "174144.885000", "174144.888000", "174144.892000", "174144.895000", "174144.898000", "174144.901000", "174144.904000", "174144.908000", "174224.787000", "174224.791000", "174224.794000", "174224.797000", "174224.800000", "174224.804000", "174224.807000", "174224.810000", "174224.814000", "174224.817000", "174224.820000", "174224.823000", "174224.827000", "174224.830000", "174224.833000", "174224.836000", "174224.840000", "174224.843000", "174224.846000", "174224.849000", "174224.853000", "174224.856000", "174224.859000", "174224.862000", "174224.866000", "174224.869000", "174224.872000", "174304.787000", "174304.791000", "174304.794000", "174304.797000", "174304.801000", "174304.804000", "174304.807000", "174304.811000", "174304.815000", "174304.818000", "174304.821000", "174304.825000", "174304.828000", "174304.831000", "174304.835000", "174304.838000", "174304.841000", "174304.844000", "174304.848000", "174304.851000", "174304.854000", "174304.858000", "174304.861000", "174304.864000", "174304.868000", "174304.871000", "174304.874000", "174344.787000", "174344.791000", "174344.794000", "174344.797000", "174344.801000", "174344.804000", "174344.807000", "174344.811000", "174344.814000", "174344.818000", "174344.821000", "174344.825000", "174344.828000", "174344.831000", "174344.834000", "174344.838000", "174344.841000", "174344.844000", "174344.848000", "174344.851000", "174344.854000", "174344.857000", "174344.861000", "174344.864000", "174344.867000", "174344.870000", "174344.874000", "174424.787000", "174424.791000", "174424.802000", "174424.805000", "174424.809000", "174424.812000", "174424.815000", "174424.818000", "174424.822000", "174424.825000", "174424.828000", "174424.832000", "174424.835000", "174424.838000", "174424.841000", "174424.845000", "174424.848000", "174424.851000", "174424.854000", "174424.858000", "174424.861000", "174424.864000", "174424.867000", "174424.870000", "174424.874000", "174424.877000", "174424.880000", "174504.787000", "174504.791000", "174504.794000", "174504.798000", "174504.801000", "174504.804000", "174504.807000", "174504.811000", "174504.814000", "174504.817000", "174504.821000", "174504.824000", "174504.827000", "174504.831000", "174504.834000", "174504.837000", "174504.840000", "174504.844000", "174504.847000", "174504.850000", "174504.854000", "174504.857000", "174504.860000", "174504.863000", "174504.867000", "174504.870000", "174504.873000", "174544.787000", "174544.791000", "174544.794000", "174544.798000", "174544.802000", "174544.805000", "174544.808000", "174544.812000", "174544.815000", "174544.819000", "174544.822000", "174544.825000", "174544.828000", "174544.832000", "174544.835000", "174544.838000", "174544.842000", "174544.845000", "174544.848000", "174544.851000", "174544.855000", "174544.858000", "174544.861000", "174544.864000", "174544.869000", "174544.872000", "174624.788000", "174624.792000", "174624.795000", "174624.798000", "174624.802000", "174624.805000", "174624.808000", "174624.811000", "174624.815000", "174624.818000", "174624.821000", "174624.825000", "174624.828000", "174624.831000", "174624.834000", "174624.838000", "174624.841000", "174624.844000", "174624.847000", "174624.851000", "174624.854000", "174624.857000", "174624.860000", "174624.864000", "174624.867000", "174624.889000", "174624.892000", "174704.787000", "174704.791000", "174704.795000", "174704.798000", "174704.801000", "174704.805000", "174704.808000", "174704.811000", "174704.815000", "174704.818000", "174704.822000", "174704.825000", "174704.828000", "174704.832000", "174704.835000", "174704.838000", "174704.842000", "174704.845000", "174704.848000", "174704.852000", "174704.855000", "174704.859000", "174704.862000", "174704.866000", "174704.869000", "174704.872000", "174704.876000", "174744.787000", "174744.791000", "174744.794000", "174744.797000", "174744.801000", "174744.804000", "174744.807000", "174744.811000", "174744.814000", "174744.817000", "174744.820000", "174744.824000", "174744.827000", "174744.830000", "174744.834000", "174744.837000", "174744.840000", "174744.844000", "174744.847000", "174744.850000", "174744.853000", "174744.857000", "174744.860000", "174744.863000", "174744.866000", "174744.870000", "174744.873000", "174824.787000", "174824.810000", "174824.813000", "174824.816000", "174824.819000", "174824.823000", "174824.826000", "174824.829000", "174824.832000", "174824.836000", "174824.839000", "174824.842000", "174824.858000", "174824.861000", "174824.864000", "174824.868000", "174824.881000", "174824.884000", "174824.888000", "174824.891000", "174824.894000", "174824.898000", "174824.901000", "174824.904000", "174824.908000", "174824.911000", "174824.914000", "174904.787000", "174904.802000", "174904.805000", "174904.809000", "174904.812000", "174904.815000", "174904.819000", "174904.822000", "174904.825000", "174904.829000", "174904.832000", "174904.835000", "174904.838000", "174904.842000", "174904.845000", "174904.848000", "174904.852000", "174904.855000", "174904.858000", "174904.861000", "174904.865000", "174904.868000", "174904.871000", "174904.874000", "174904.878000", "174904.881000", "174904.884000", "174912.141000", "174912.145000", "174912.148000", "174912.152000", "174912.155000"],
      "InstanceCreationTime": ["174004.835000", "174004.839000", "174004.842000", "174004.845000", "174004.848000", "174004.852000", "174004.855000", "174004.860000", "174004.863000", "174004.867000", "174004.870000", "174004.873000", "174004.876000", "174004.885000", "174004.889000", "174004.892000", "174004.895000", "174004.898000", "174004.902000", "174004.905000", "174004.908000", "174004.911000", "174004.915000", "174004.918000", "174004.925000", "174004.928000", "174004.931000", "174004.935000", "174004.938000", "174004.941000", "174004.944000", "174004.948000", "174004.951000", "174004.954000", "174004.957000", "174004.961000", "174004.965000", "174004.968000", "174004.972000", "174024.787000", "174024.791000", "174024.794000", "174024.797000", "174024.801000", "174024.804000", "174024.807000", "174024.810000", "174024.814000", "174024.817000", "174024.820000", "174024.823000", "174024.827000", "174024.830000", "174024.833000", "174024.837000", "174024.840000", "174024.843000", "174024.854000", "174024.857000", "174044.787000", "174044.791000", "174044.794000", "174044.797000", "174044.800000", "174044.804000", "174044.807000", "174044.810000", "174044.814000", "174044.817000", "174044.820000", "174044.823000", "174044.827000", "174044.830000", "174044.833000", "174044.836000", "174044.840000", "174044.843000", "174044.846000", "174044.849000", "174104.787000", "174104.791000", "174104.794000", "174104.797000", "174104.801000", "174104.804000", "174104.807000", "174104.811000", "174104.814000", "174104.818000", "174104.821000", "174104.824000", "174104.828000", "174104.831000", "174104.834000", "174104.838000", "174104.841000", "174104.844000", "174104.847000", "174104.851000", "174144.788000", "174144.792000", "174144.796000", "174144.799000", "174144.802000", "174144.806000", "174144.809000", "174144.812000", "174144.815000", "174144.819000", "174144.822000", "174144.825000", "174144.829000", "174144.832000", "174144.835000", "174144.838000", "174144.842000", "174144.845000", "174144.848000", "174144.852000", "174144.864000", "174144.867000", "174144.885000", "174144.888000", "174144.892000", "174144.895000", "174144.898000", "174144.901000", "174144.904000", "174144.908000", "174224.787000", "174224.791000", "174224.794000", "174224.797000", "174224.800000", "174224.804000", "174224.807000", "174224.810000", "174224.814000", "174224.817000", "174224.820000", "174224.823000", "174224.827000", "174224.830000", "174224.833000", "174224.836000", "174224.840000", "174224.843000", "174224.846000", "174224.849000", "174224.853000", "174224.856000", "174224.859000", "174224.862000", "174224.866000", "174224.869000", "174224.872000", "174304.787000", "174304.791000", "174304.794000", "174304.797000", "174304.801000", "174304.804000", "174304.807000", "174304.811000", "174304.815000", "174304.818000", "174304.821000", "174304.825000", "174304.828000", "174304.831000", "174304.835000", "174304.838000", "174304.841000", "174304.844000", "174304.848000", "174304.851000", "174304.854000", "174304.858000", "174304.861000", "174304.864000", "174304.868000", "174304.871000", "174304.874000", "174344.787000", "174344.791000", "174344.794000", "174344.797000", "174344.801000", "174344.804000", "174344.807000", "174344.811000", "174344.814000", "174344.818000", "174344.821000", "174344.825000", "174344.828000", "174344.831000", "174344.834000", "174344.838000", "174344.841000", "174344.844000", "174344.848000", "174344.851000", "174344.854000", "174344.857000", "174344.861000", "174344.864000", "174344.867000", "174344.870000", "174344.874000", "174424.787000", "174424.791000", "174424.802000", "174424.805000", "174424.809000", "174424.812000", "174424.815000", "174424.818000", "174424.822000", "174424.825000", "174424.828000", "174424.832000", "174424.835000", "174424.838000", "174424.841000", "174424.845000", "174424.848000", "174424.851000", "174424.854000", "174424.858000", "174424.861000", "174424.864000", "174424.867000", "174424.870000", "174424.874000", "174424.877000", "174424.880000", "174504.787000", "174504.791000", "174504.794000", "174504.798000", "174504.801000", "174504.804000", "174504.807000", "174504.811000", "174504.814000", "174504.817000", "174504.821000", "174504.824000", "174504.827000", "174504.831000", "174504.834000", "174504.837000", "174504.840000", "174504.844000", "174504.847000", "174504.850000", "174504.854000", "174504.857000", "174504.860000", "174504.863000", "174504.867000", "174504.870000", "174504.873000", "174544.787000", "174544.791000", "174544.794000", "174544.798000", "174544.802000", "174544.805000", "174544.808000", "174544.812000", "174544.815000", "174544.819000", "174544.822000", "174544.825000", "174544.828000", "174544.832000", "174544.835000", "174544.838000", "174544.842000", "174544.845000", "174544.848000", "174544.851000", "174544.855000", "174544.858000", "174544.861000", "174544.864000", "174544.869000", "174544.872000", "174624.788000", "174624.792000", "174624.795000", "174624.798000", "174624.802000", "174624.805000", "174624.808000", "174624.811000", "174624.815000", "174624.818000", "174624.821000", "174624.825000", "174624.828000", "174624.831000", "174624.834000", "174624.838000", "174624.841000", "174624.844000", "174624.847000", "174624.851000", "174624.854000", "174624.857000", "174624.860000", "174624.864000", "174624.867000", "174624.889000", "174624.892000", "174704.787000", "174704.791000", "174704.795000", "174704.798000", "174704.801000", "174704.805000", "174704.808000", "174704.811000", "174704.815000", "174704.818000", "174704.822000", "174704.825000", "174704.828000", "174704.832000", "174704.835000", "174704.838000", "174704.842000", "174704.845000", "174704.848000", "174704.852000", "174704.855000", "174704.859000", "174704.862000", "174704.866000", "174704.869000", "174704.872000", "174704.876000", "174744.787000", "174744.791000", "174744.794000", "174744.797000", "174744.801000", "174744.804000", "174744.807000", "174744.811000", "174744.814000", "174744.817000", "174744.820000", "174744.824000", "174744.827000", "174744.830000", "174744.834000", "174744.837000", "174744.840000", "174744.844000", "174744.847000", "174744.850000", "174744.853000", "174744.857000", "174744.860000", "174744.863000", "174744.866000", "174744.870000", "174744.873000", "174824.787000", "174824.810000", "174824.813000", "174824.816000", "174824.819000", "174824.823000", "174824.826000", "174824.829000", "174824.832000", "174824.836000", "174824.839000", "174824.842000", "174824.858000", "174824.861000", "174824.864000", "174824.868000", "174824.881000", "174824.884000", "174824.888000", "174824.891000", "174824.894000", "174824.898000", "174824.901000", "174824.904000", "174824.908000", "174824.911000", "174824.914000", "174904.787000", "174904.802000", "174904.805000", "174904.809000", "174904.812000", "174904.815000", "174904.819000", "174904.822000", "174904.825000", "174904.829000", "174904.832000", "174904.835000", "174904.838000", "174904.842000", "174904.845000", "174904.848000", "174904.852000", "174904.855000", "174904.858000", "174904.861000", "174904.865000", "174904.868000", "174904.871000", "174904.874000", "174904.878000", "174904.881000", "174904.884000", "174912.141000", "174912.145000", "174912.148000", "174912.152000", "174912.155000"],
