{
  "AcquisitionMatrixPE": 104,
  "AcquisitionNumber": 1,
  "AcquisitionTime": "17:38:30.430000",
  "BandwidthPerPixelPhaseEncode": 17.17,
  "BaseResolution": 104,
  "BodyPartExamined": "BRAIN",
  "CoilCombinationMethod": "Sum of Squares",
  "ConsistencyInfo": "N4_VE11C_LATEST_20160120",
  "ConversionSoftware": "dcm2niix",
  "ConversionSoftwareVersion": "v1.0.20211006",
  "DerivedVendorReportedEchoSpacing": 0.000560011,
  "DeviceSerialNumber": "167006",
  "DwellTime": 2.1e-06,
  "EchoTime": 0.037,
  "EchoTime1": 0.037,
  "EchoTime2": 0.001,
  "EchoTrainLength": 104,
  "EffectiveEchoSpacing": 0.000560011,
  "FlipAngle": 52,
  "HeudiconvVersion": "0.10.0",
  "ImageComments": "Unaliased MB4/PE3/LB",
  "ImageOrientationPatientDICOM": [0.995549, 0.0849325, 0.0408477, -0.0619369, 0.9163, -0.395675],
  "ImageOrientationText": "Tra>Cor(-23.1)>Sag(4.1)",
  "ImageType": [
    "ORIGINAL",
    "PRIMARY",
    "P",
    "MB",
    "ND",
    "MOSAIC",
    "PHASE"
],
  "ImagingFrequency": 123.259,
  "InPlanePhaseEncodingDirectionDICOM": "COL",
  "InstitutionAddress": "Chemin Queen-Mary 4565,Montreal,District,CA,H3W 1W5",
  "InstitutionName": "IUGM",
  "InstitutionalDepartmentName": "Department",
  "MRAcquisitionType": "2D",
  "MagneticFieldStrength": 3,
  "Manufacturer": "Siemens",
  "ManufacturersModelName": "Prisma_fit",
  "MatrixCoilMode": "SENSE",
  "Modality": "MR",
  "MultibandAccelerationFactor": 4,
  "PartialFourier": 1,
  "PatientPosition": "HFS",
  "PercentPhaseFOV": 100,
  "PercentSampling": 100,
  "PhaseEncodingDirection": "j",
  "PhaseEncodingSteps": 104,
  "PhaseResolution": 1,
  "PixelBandwidth": 2290,
  "ProcedureStepDescription": "games^mario",
  "ProtocolName": "func_task-mario_run-03",
  "PulseSequenceDetails": "%CustomerSeq%\\cmrr_mbep2d_bold",
  "ReceiveCoilActiveElements": "HC1-7;NC1,2",
  "ReceiveCoilName": "HeadNeck_64",
  "ReconMatrixPE": 104,
  "RepetitionTime": 1.49,
  "SAR": 0.0618058,
  "ScanOptions": "FS",
  "ScanningSequence": "EP",
  "SequenceName": "epfid2d1_104",
  "SequenceVariant": "SK\\SS",
  "SeriesDescription": "func_task-mario_run-03",
  "SeriesNumber": 17,
  "ShimSetting": [635, -7187, -8822, 591, 89, -24, -62, -5],
  "SliceThickness": 2,
  "SliceTiming": [0, 0.785, 0.0975, 0.8825, 0.1975, 0.98, 0.295, 1.0775, 0.3925, 1.1775, 0.49, 1.275, 0.5875, 1.3725, 0.6875, 0, 0.785, 0.0975, 0.8825, 0.1975, 0.98, 0.295, 1.0775, 0.3925, 1.1775, 0.49, 1.275, 0.5875, 1.3725, 0.6875, 0, 0.785, 0.0975, 0.8825, 0.1975, 0.98, 0.295, 1.0775, 0.3925, 1.1775, 0.49, 1.275, 0.5875, 1.3725, 0.6875, 0, 0.785, 0.0975, 0.8825, 0.1975, 0.98, 0.295, 1.0775, 0.3925, 1.1775, 0.49, 1.275, 0.5875, 1.3725, 0.6875],
  "SoftwareVersions": "syngo MR E11",
  "SpacingBetweenSlices": 2,
  "StationName": "MRC35049",
  "TaskName": "mario",
  "TotalReadoutTime": 0.0576811,
  "TxRefAmp": 303.852,
  "WipMemBlock": "1802baf8-c60c-4f5c-acda-ee6f9224637e||Sequence: R016 ve11c/master r/e634e98; Dec 19 2017 11:00:25 by eja",
  "dcmmeta_affine": [
    [-1.991098165512085, -0.12387380748987198, 0.14206887781620026, 108.3235855102539],
    [-0.16986507177352905, 1.8325992822647095, -0.7827680110931396, -48.03376388549805],
    [0.08169542998075485, 0.7913501858711243, 1.8349634408950806, -65.2478256225586],
    [0.0, 0.0, 0.0, 1.0]
],
  "dcmmeta_reorient_transform": [
    [0.0, -1.0, 0.0, 103.0],
    [1.0, 0.0, 0.0, 0.0],
    [0.0, 0.0, 1.0, 0.0],
    [0.0, 0.0, 0.0, 1.0]
],
  "dcmmeta_shape": [104, 104, 60, 430],
  "dcmmeta_slice_dim": 2,
  "dcmmeta_version": 0.6,
  "global": {
    "const": {
      "AcquisitionMatrix": [104, 0, 0, 104],
      "AngioFlag": "N",
      "BitsAllocated": 16,
      "BitsStored": 16,
      "BodyPartExamined": "BRAIN",
      "Columns": 832,
      "EchoNumbers": 1,
      "EchoTime": 37.0,
      "EchoTrainLength": 104,
      "FlipAngle": 52.0,
      "HighBit": 15,
      "ImageOrientationPatient": [0.99554905887121, 0.08493253482423, 0.04084771608028, -0.0619369041187, 0.91629963954316, -0.3956751072298],
      "ImagePositionPatient": [-775.23423191207, -869.62098663959, 274.57558705294],
      "ImageType": [
        "ORIGINAL",
        "PRIMARY",
        "P",
        "MB",
        "ND",
        "MOSAIC"
],
      "ImagedNucleus": "1H",
      "ImagingFrequency": 123.258887,
      "InPlanePhaseEncodingDirection": "COL",
      "LargestImagePixelValue": 4095,
      "MRAcquisitionType": "2D",
      "MagneticFieldStrength": 3.0,
      "Manufacturer": "SIEMENS",
      "ManufacturerModelName": "Prisma_fit",
      "Modality": "MR",
      "NumberOfAverages": 1.0,
      "NumberOfPhaseEncodingSteps": 104,
      "PercentPhaseFieldOfView": 100.0,
      "PercentSampling": 100.0,
      "PerformedProcedureStepStartTime": "165225.117000",
      "PhotometricInterpretation": "MONOCHROME2",
      "PixelBandwidth": 2290.0,
      "PixelRepresentation": 0,
      "PixelSpacing": [2.0, 2.0],
      "ProtocolName": "func_task-mario_run-03",
      "RepetitionTime": 1490.0,
      "RescaleIntercept": -4096.0,
      "RescaleSlope": 2.0,
      "RescaleType": "US",
      "Rows": 832,
      "SAR": 0.06180577625373,
      "SamplesPerPixel": 1,
      "ScanOptions": "FS",
      "ScanningSequence": "EP",
      "SequenceName": "epfid2d1_104",
      "SequenceVariant": [
        "SK",
        "SS"
],
      "SeriesDescription": "func_task-mario_run-03",
      "SeriesNumber": 17,
      "SeriesTime": "174005.014000",
      "SliceLocation": -33.369335414352,
      "SliceThickness": 2.0,
      "SmallestImagePixelValue": 0,
      "SoftwareVersions": "syngo MR E11",
      "SpacingBetweenSlices": 2.0000000162907,
      "SpecificCharacterSet": "ISO_IR 100",
      "StudyID": "1",
      "StudyTime": "165225.004000",
      "TransmitCoilName": "Body",
      "VariableFlipAngleFlag": "N",
      "WindowCenterWidthExplanation": "Algo1",
      "dBdt": 0.0},
    "slices": {}
  },
  "time": {
    "samples": {
      "AcquisitionNumber": [1, 2, 3, 4, 5, 6, 7, 8, 9, 10, 11, 12, 13, 14, 15, 16, 17, 18, 19, 20, 21, 22, 23, 24, 25, 26, 27, 28, 29, 30, 31, 32, 33, 34, 35, 36, 37, 38, 39, 40, 41, 42, 43, 44, 45, 46, 47, 48, 49, 50, 51, 52, 53, 54, 55, 56, 57, 58, 59, 60, 61, 62, 63, 64, 65, 66, 67, 68, 69, 70, 71, 72, 73, 74, 75, 76, 77, 78, 79, 80, 81, 82, 83, 84, 85, 86, 87, 88, 89, 90, 91, 92, 93, 94, 95, 96, 97, 98, 99, 100, 101, 102, 103, 104, 105, 106, 107, 108, 109, 110, 111, 112, 113, 114, 115, 116, 117, 118, 119, 120, 121, 122, 123, 124, 125, 126, 127, 128, 129, 130, 131, 132, 133, 134, 135, 136, 137, 138, 139, 140, 141, 142, 143, 144, 145, 146, 147, 148, 149, 150, 151, 152, 153, 154, 155, 156, 157, 158, 159, 160, 161, 162, 163, 164, 165, 166, 167, 168, 169, 170, 171, 172, 173, 174, 175, 176, 177, 178, 179, 180, 181, 182, 183, 184, 185, 186, 187, 188, 189, 190, 191, 192, 193, 194, 195, 196, 197, 198, 199, 200, 201, 202, 203, 204, 205, 206, 207, 208, 209, 210, 211, 212, 213, 214, 215, 216, 217, 218, 219, 220, 221, 222, 223, 224, 225, 226, 227, 228, 229, 230, 231, 232, 233, 234, 235, 236, 237, 238, 239, 240, 241, 242, 243, 244, 245, 246, 247, 248, 249, 250, 251, 252, 253, 254, 255, 256, 257, 258, 259, 260, 261, 262, 263, 264, 265, 266, 267, 268, 269, 270, 271, 272, 273, 274, 275, 276, 277, 278, 279, 280, 281, 282, 283, 284, 285, 286, 287, 288, 289, 290, 291, 292, 293, 294, 295, 296, 297, 298, 299, 300, 301, 302, 303, 304, 305, 306, 307, 308, 309, 310, 311, 312, 313, 314, 315, 316, 317, 318, 319, 320, 321, 322, 323, 324, 325, 326, 327, 328, 329, 330, 331, 332, 333, 334, 335, 336, 337, 338, 339, 340, 341, 342, 343, 344, 345, 346, 347, 348, 349, 350, 351, 352, 353, 354, 355, 356, 357, 358, 359, 360, 361, 362, 363, 364, 365, 366, 367, 368, 369, 370, 371, 372, 373, 374, 375, 376, 377, 378, 379, 380, 381, 382, 383, 384, 385, 386, 387, 388, 389, 390, 391, 392, 393, 394, 395, 396, 397, 398, 399, 400, 401, 402, 403, 404, 405, 406, 407, 408, 409, 410, 411, 412, 413, 414, 415, 416, 417, 418, 419, 420, 421, 422, 423, 424, 425, 426, 427, 428, 429, 430],
      "AcquisitionTime": ["173830.430000", "173831.920000", "173833.410000", "173834.900000", "173836.390000", "173837.880000", "173839.370000", "173840.860000", "173842.350000", "173843.840000", "173845.330000", "173846.820000", "173848.310000", "173849.800000", "173851.290000", "173852.780000", "173854.270000", "173855.760000", "173857.250000", "173858.740000", "173900.230000", "173901.720000", "173903.210000", "173904.700000", "173906.190000", "173907.680000", "173909.170000", "173910.660000", "173912.150000", "173913.640000", "173915.130000", "173916.620000", "173918.110000", "173919.600000", "173921.090000", "173922.580000", "173924.070000", "173925.560000", "173927.050000", "173928.540000", "173930.030000", "173931.520000", "173933.010000", "173934.500000", "173935.990000", "173937.480000", "173938.970000", "173940.460000", "173941.950000", "173943.440000", "173944.930000", "173946.420000", "173947.910000", "173949.400000", "173950.890000", "173952.380000", "173953.870000", "173955.360000", "173956.850000", "173958.340000", "173959.830000", "174001.320000", "174002.810000", "174004.300000", "174005.790000", "174007.280000", "174008.770000", "174010.260000", "174011.750000", "174013.240000", "174014.730000", "174016.220000", "174017.710000", "174019.200000", "174020.690000", "174022.180000", "174023.670000", "174025.160000", "174026.650000", "174028.140000", "174029.630000", "174031.120000", "174032.610000", "174034.100000", "174035.590000", "174037.080000", "174038.570000", "174040.060000", "174041.550000", "174043.040000", "174044.530000", "174046.020000", "174047.510000", "174049.000000", "174050.490000", "174051.980000", "174053.470000", "174054.960000", "174056.450000", "174057.940000", "174059.430000", "174100.920000", "174102.410000", "174103.900000", "174105.390000", "174106.880000", "174108.370000", "174109.860000", "174111.350000", "174112.840000", "174114.330000", "174115.820000", "174117.310000", "174118.800000", "174120.290000", "174121.780000", "174123.270000", "174124.760000", "174126.250000", "174127.740000", "174129.230000", "174130.720000", "174132.210000", "174133.700000", "174135.190000", "174136.680000", "174138.170000", "174139.660000", "174141.150000", "174142.640000", "174144.130000", "174145.620000", "174147.110000", "174148.600000", "174150.090000", "174151.580000", "174153.070000", "174154.560000", "174156.050000", "174157.540000", "174159.030000", "174200.520000", "174202.010000", "174203.500000", "174204.990000", "174206.480000", "174207.970000", "174209.460000", "174210.950000", "174212.440000", "174213.930000", "174215.420000", "174216.910000", "174218.400000", "174219.890000", "174221.380000", "174222.870000", "174224.360000", "174225.850000", "174227.340000", "174228.830000", "174230.320000", "174231.810000", "174233.300000", "174234.790000", "174236.280000", "174237.770000", "174239.260000", "174240.750000", "174242.240000", "174243.730000", "174245.220000", "174246.710000", "174248.200000", "174249.690000", "174251.180000", "174252.670000", "174254.160000", "174255.650000", "174257.140000", "174258.630000", "174300.120000", "174301.610000", "174303.100000", "174304.590000", "174306.080000", "174307.570000", "174309.060000", "174310.550000", "174312.040000", "174313.530000", "174315.020000", "174316.510000", "174318.000000", "174319.490000", "174320.980000", "174322.470000", "174323.960000", "174325.450000", "174326.940000", "174328.430000", "174329.920000", "174331.410000", "174332.900000", "174334.390000", "174335.880000", "174337.370000", "174338.860000", "174340.350000", "174341.840000", "174343.330000", "174344.820000", "174346.310000", "174347.800000", "174349.290000", "174350.780000", "174352.270000", "174353.760000", "174355.250000", "174356.740000", "174358.230000", "174359.720000", "174401.210000", "174402.700000", "174404.190000", "174405.680000", "174407.170000", "174408.660000", "174410.150000", "174411.640000", "174413.130000", "174414.620000", "174416.110000", "174417.600000", "174419.090000", "174420.580000", "174422.070000", "174423.560000", "174425.050000", "174426.540000", "174428.030000", "174429.520000", "174431.010000", "174432.500000", "174433.990000", "174435.480000", "174436.970000", "174438.460000", "174439.950000", "174441.440000", "174442.930000", "174444.420000", "174445.910000", "174447.400000", "174448.890000", "174450.380000", "174451.870000", "174453.360000", "174454.850000", "174456.340000", "174457.830000", "174459.320000", "174500.810000", "174502.300000", "174503.790000", "174505.280000", "174506.770000", "174508.260000", "174509.750000", "174511.240000", "174512.730000", "174514.220000", "174515.710000", "174517.200000", "174518.690000", "174520.180000", "174521.670000", "174523.160000", "174524.650000", "174526.140000", "174527.630000", "174529.120000", "174530.610000", "174532.100000", "174533.590000", "174535.080000", "174536.570000", "174538.060000", "174539.550000", "174541.040000", "174542.530000", "174544.020000", "174545.510000", "174547.000000", "174548.490000", "174549.980000", "174551.470000", "174552.960000", "174554.450000", "174555.940000", "174557.430000", "174558.920000", "174600.410000", "174601.900000", "174603.390000", "174604.880000", "174606.370000", "174607.860000", "174609.350000", "174610.840000", "174612.330000", "174613.820000", "174615.310000", "174616.800000", "174618.290000", "174619.780000", "174621.270000", "174622.760000", "174624.250000", "174625.740000", "174627.230000", "174628.720000", "174630.210000", "174631.700000", "174633.190000", "174634.680000", "174636.170000", "174637.660000", "174639.150000", "174640.640000", "174642.130000", "174643.620000", "174645.110000", "174646.600000", "174648.090000", "174649.580000", "174651.070000", "174652.560000", "174654.050000", "174655.540000", "174657.030000", "174658.520000", "174700.010000", "174701.500000", "174702.990000", "174704.480000", "174705.970000", "174707.460000", "174708.950000", "174710.440000", "174711.930000", "174713.420000", "174714.910000", "174716.400000", "174717.890000", "174719.380000", "174720.870000", "174722.360000", "174723.850000", "174725.340000", "174726.830000", "174728.320000", "174729.810000", "174731.300000", "174732.790000", "174734.280000", "174735.770000", "174737.260000", "174738.750000", "174740.240000", "174741.730000", "174743.220000", "174744.710000", "174746.200000", "174747.690000", "174749.180000", "174750.670000", "174752.160000", "174753.650000", "174755.140000", "174756.630000", "174758.120000", "174759.610000", "174801.100000", "174802.590000", "174804.080000", "174805.570000", "174807.060000", "174808.550000", "174810.040000", "174811.530000", "174813.020000", "174814.510000", "174816.000000", "174817.490000", "174818.980000", "174820.470000", "174821.960000", "174823.450000", "174824.940000", "174826.430000", "174827.920000", "174829.410000", "174830.900000", "174832.390000", "174833.880000", "174835.370000", "174836.860000", "174838.350000", "174839.840000", "174841.330000", "174842.820000", "174844.310000", "174845.800000", "174847.290000", "174848.780000", "174850.270000", "174851.760000", "174853.250000", "174854.740000", "174856.230000", "174857.720000", "174859.210000", "174900.700000", "174902.190000", "174903.680000", "174905.170000", "174906.660000", "174908.150000", "174909.640000"],
      "ContentTime": ["174005.016000", "174005.019000", "174005.022000", "174005.024000", "174005.027000", "174005.029000", "174005.032000", "174005.034000", "174005.037000", "174005.039000", "174005.042000", "174005.044000", "174005.046000", "174005.049000", "174005.051000", "174005.054000", "174005.056000", "174005.059000", "174005.061000", "174005.064000", "174005.066000", "174005.068000", "174005.071000", "174005.073000", "174005.076000", "174005.078000", "174005.081000", "174005.083000", "174005.086000", "174005.088000", "174005.090000", "174005.093000", "174005.095000", "174005.098000", "174005.100000", "174005.103000", "174005.105000", "174005.108000", "174005.110000", "174024.893000", "174024.896000", "174024.898000", "174024.901000", "174024.904000", "174024.906000", "174024.909000", "174024.911000", "174024.914000", "174024.916000", "174024.918000", "174024.921000", "174024.923000", "174024.926000", "174024.928000", "174024.931000", "174024.933000", "174024.936000", "174024.938000", "174024.941000", "174044.909000", "174044.912000", "174044.914000", "174044.917000", "174044.919000", "174044.922000", "174044.924000", "174044.927000", "174044.929000", "174044.932000", "174044.934000", "174044.936000", "174044.939000", "174044.941000", "174044.944000", "174044.946000", "174044.949000", "174044.951000", "174044.954000", "174044.956000", "174105.238000", "174105.240000", "174105.243000", "174105.245000", "174105.248000", "174105.250000", "174105.253000", "174105.255000", "174105.258000", "174105.260000", "174105.263000", "174105.265000", "174105.268000", "174105.270000", "174105.273000", "174105.275000", "174105.278000", "174105.280000", "174105.282000", "174105.285000", "174144.956000", "174144.959000", "174144.961000", "174144.964000", "174144.966000", "174144.969000", "174144.971000", "174144.973000", "174144.976000", "174144.978000", "174144.981000", "174144.983000", "174144.986000", "174144.988000", "174144.991000", "174144.993000", "174144.995000", "174144.998000", "174145.000000", "174145.003000", "174145.005000", "174145.008000", "174145.010000", "174145.013000", "174145.015000", "174145.018000", "174145.020000", "174145.023000", "174145.025000", "174145.027000", "174224.923000", "174224.926000", "174224.928000", "174224.931000", "174224.933000", "174224.936000", "174224.938000", "174224.941000", "174224.943000", "174224.946000", "174224.948000", "174224.951000", "174224.953000", "174224.956000", "174224.958000", "174224.961000", "174224.963000", "174224.966000", "174224.968000", "174224.971000", "174224.973000", "174224.975000", "174224.978000", "174224.980000", "174224.983000", "174224.985000", "174224.988000", "174304.919000", "174304.922000", "174304.924000", "174304.927000", "174304.929000", "174304.932000", "174304.934000", "174304.937000", "174304.939000", "174304.942000", "174304.944000", "174304.947000", "174304.949000", "174304.952000", "174304.954000", "174304.956000", "174304.959000", "174304.961000", "174304.964000", "174304.966000", "174304.969000", "174304.971000", "174304.974000", "174304.976000", "174304.979000", "174304.981000", "174304.984000", "174344.915000", "174344.918000", "174344.921000", "174344.923000", "174344.925000", "174344.928000", "174344.930000", "174344.933000", "174344.935000", "174344.938000", "174344.940000", "174344.943000", "174344.945000", "174344.948000", "174344.950000", "174344.953000", "174344.955000", "174344.958000", "174344.960000", "174344.963000", "174344.965000", "174344.967000", "174344.970000", "174344.972000", "174344.975000", "174344.977000", "174344.980000", "174424.924000", "174424.927000", "174424.929000", "174424.932000", "174424.934000", "174424.937000", "174424.939000", "174424.942000", "174424.944000", "174424.947000", "174424.949000", "174424.951000", "174424.954000", "174424.956000", "174424.959000", "174424.961000", "174424.964000", "174424.966000", "174424.969000", "174424.971000", "174424.974000", "174424.976000", "174424.979000", "174424.981000", "174424.984000", "174424.986000", "174424.989000", "174504.920000", "174504.923000", "174504.925000", "174504.927000", "174504.930000", "174504.932000", "174504.935000", "174504.937000", "174504.940000", "174504.942000", "174504.945000", "174504.947000", "174504.950000", "174504.952000", "174504.955000", "174504.957000", "174504.960000", "174504.962000", "174504.965000", "174504.967000", "174504.969000", "174504.972000", "174504.974000", "174504.977000", "174504.979000", "174504.982000", "174504.984000", "174544.922000", "174544.925000", "174544.927000", "174544.930000", "174544.932000", "174544.935000", "174544.937000", "174544.940000", "174544.942000", "174544.944000", "174544.947000", "174544.949000", "174544.952000", "174544.954000", "174544.957000", "174544.959000", "174544.962000", "174544.964000", "174544.967000", "174544.969000", "174544.972000", "174544.974000", "174544.976000", "174544.979000", "174544.981000", "174544.984000", "174624.942000", "174624.945000", "174624.947000", "174624.950000", "174624.952000", "174624.955000", "174624.957000", "174624.960000", "174624.962000", "174624.965000", "174624.967000", "174624.970000", "174624.972000", "174624.975000", "174624.977000", "174624.980000", "174624.982000", "174624.984000", "174624.987000", "174624.990000", "174624.992000", "174624.994000", "174624.997000", "174625.000000", "174625.002000", "174625.005000", "174625.007000", "174704.934000", "174704.936000", "174704.939000", "174704.942000", "174704.944000", "174704.947000", "174704.949000", "174704.952000", "174704.954000", "174704.957000", "174704.959000", "174704.962000", "174704.964000", "174704.967000", "174704.969000", "174704.972000", "174704.974000", "174704.977000", "174704.979000", "174704.982000", "174704.984000", "174704.987000", "174704.990000", "174704.992000", "174704.995000", "174704.997000", "174705.001000", "174744.936000", "174744.938000", "174744.941000", "174744.943000", "174744.946000", "174744.948000", "174744.951000", "174744.953000", "174744.956000", "174744.958000", "174744.961000", "174744.963000", "174744.966000", "174744.968000", "174744.971000", "174744.973000", "174744.975000", "174744.978000", "174744.980000", "174744.983000", "174744.985000", "174744.988000", "174744.990000", "174744.993000", "174744.995000", "174744.998000", "174745.001000", "174824.960000", "174824.963000", "174824.965000", "174824.968000", "174824.971000", "174824.973000", "174824.975000", "174824.978000", "174824.980000", "174824.983000", "174824.985000", "174824.988000", "174824.990000", "174824.993000", "174824.995000", "174824.998000", "174825.001000", "174825.004000", "174825.006000", "174825.009000", "174825.011000", "174825.013000", "174825.016000", "174825.018000", "174825.021000", "174825.023000", "174825.026000", "174904.930000", "174904.932000", "174904.935000", "174904.937000", "174904.940000", "174904.942000", "174904.945000", "174904.947000", "174904.950000", "174904.952000", "174904.955000", "174904.957000", "174904.960000", "174904.962000", "174904.964000", "174904.967000", "174904.969000", "174904.972000", "174904.974000", "174904.977000", "174904.979000", "174904.982000", "174904.984000", "174904.987000", "174904.989000", "174904.992000", "174904.994000", "174912.187000", "174912.190000", "174912.192000", "174912.195000", "174912.197000"],
      "InstanceCreationTime": ["174005.016000", "174005.019000", "174005.022000", "174005.024000", "174005.027000", "174005.029000", "174005.032000", "174005.034000", "174005.037000", "174005.039000", "174005.042000", "174005.044000", "174005.046000", "174005.049000", "174005.051000", "174005.054000", "174005.056000", "174005.059000", "174005.061000", "174005.064000", "174005.066000", "174005.068000", "174005.071000", "174005.073000", "174005.076000", "174005.078000", "174005.081000", "174005.083000", "174005.086000", "174005.088000", "174005.090000", "174005.093000", "174005.095000", "174005.098000", "174005.100000", "174005.103000", "174005.105000", "174005.108000", "174005.110000", "174024.893000", "174024.896000", "174024.898000", "174024.901000", "174024.904000", "174024.906000", "174024.909000", "174024.911000", "174024.914000", "174024.916000", "174024.918000", "174024.921000", "174024.923000", "174024.926000", "174024.928000", "174024.931000", "174024.933000", "174024.936000", "174024.938000", "174024.941000", "174044.909000", "174044.912000", "174044.914000", "174044.917000", "174044.919000", "174044.922000", "174044.924000", "174044.927000", "174044.929000", "174044.932000", "174044.934000", "174044.936000", "174044.939000", "174044.941000", "174044.944000", "174044.946000", "174044.949000", "174044.951000", "174044.954000", "174044.956000", "174105.238000", "174105.240000", "174105.243000", "174105.245000", "174105.248000", "174105.250000", "174105.253000", "174105.255000", "174105.258000", "174105.260000", "174105.263000", "174105.265000", "174105.268000", "174105.270000", "174105.273000", "174105.275000", "174105.278000", "174105.280000", "174105.282000", "174105.285000", "174144.956000", "174144.959000", "174144.961000", "174144.964000", "174144.966000", "174144.969000", "174144.971000", "174144.973000", "174144.976000", "174144.978000", "174144.981000", "174144.983000", "174144.986000", "174144.988000", "174144.991000", "174144.993000", "174144.995000", "174144.998000", "174145.000000", "174145.003000", "174145.005000", "174145.008000", "174145.010000", "174145.013000", "174145.015000", "174145.018000", "174145.020000", "174145.023000", "174145.025000", "174145.027000", "174224.923000", "174224.926000", "174224.928000", "174224.931000", "174224.933000", "174224.936000", "174224.938000", "174224.941000", "174224.943000", "174224.946000", "174224.948000", "174224.951000", "174224.953000", "174224.956000", "174224.958000", "174224.961000", "174224.963000", "174224.966000", "174224.968000", "174224.971000", "174224.973000", "174224.975000", "174224.978000", "174224.980000", "174224.983000", "174224.985000", "174224.988000", "174304.919000", "174304.922000", "174304.924000", "174304.927000", "174304.929000", "174304.932000", "174304.934000", "174304.937000", "174304.939000", "174304.942000", "174304.944000", "174304.947000", "174304.949000", "174304.952000", "174304.954000", "174304.956000", "174304.959000", "174304.961000", "174304.964000", "174304.966000", "174304.969000", "174304.971000", "174304.974000", "174304.976000", "174304.979000", "174304.981000", "174304.984000", "174344.915000", "174344.918000", "174344.921000", "174344.923000", "174344.925000", "174344.928000", "174344.930000", "174344.933000", "174344.935000", "174344.938000", "174344.940000", "174344.943000", "174344.945000", "174344.948000", "174344.950000", "174344.953000", "174344.955000", "174344.958000", "174344.960000", "174344.963000", "174344.965000", "174344.967000", "174344.970000", "174344.972000", "174344.975000", "174344.977000", "174344.980000", "174424.924000", "174424.927000", "174424.929000", "174424.932000", "174424.934000", "174424.937000", "174424.939000", "174424.942000", "174424.944000", "174424.947000", "174424.949000", "174424.951000", "174424.954000", "174424.956000", "174424.959000", "174424.961000", "174424.964000", "174424.966000", "174424.969000", "174424.971000", "174424.974000", "174424.976000", "174424.979000", "174424.981000", "174424.984000", "174424.986000", "174424.989000", "174504.920000", "174504.923000", "174504.925000", "174504.927000", "174504.930000", "174504.932000", "174504.935000", "174504.937000", "174504.940000", "174504.942000", "174504.945000", "174504.947000", "174504.950000", "174504.952000", "174504.955000", "174504.957000", "174504.960000", "174504.962000", "174504.965000", "174504.967000", "174504.969000", "174504.972000", "174504.974000", "174504.977000", "174504.979000", "174504.982000", "174504.984000", "174544.922000", "174544.925000", "174544.927000", "174544.930000", "174544.932000", "174544.935000", "174544.937000", "174544.940000", "174544.942000", "174544.944000", "174544.947000", "174544.949000", "174544.952000", "174544.954000", "174544.957000", "174544.959000", "174544.962000", "174544.964000", "174544.967000", "174544.969000", "174544.972000", "174544.974000", "174544.976000", "174544.979000", "174544.981000", "174544.984000", "174624.942000", "174624.945000", "174624.947000", "174624.950000", "174624.952000", "174624.955000", "174624.957000", "174624.960000", "174624.962000", "174624.965000", "174624.967000", "174624.970000", "174624.972000", "174624.975000", "174624.977000", "174624.980000", "174624.982000", "174624.984000", "174624.987000", "174624.990000", "174624.992000", "174624.994000", "174624.997000", "174625.000000", "174625.002000", "174625.005000", "174625.007000", "174704.934000", "174704.936000", "174704.939000", "174704.942000", "174704.944000", "174704.947000", "174704.949000", "174704.952000", "174704.954000", "174704.957000", "174704.959000", "174704.962000", "174704.964000", "174704.967000", "174704.969000", "174704.972000", "174704.974000", "174704.977000", "174704.979000", "174704.982000", "174704.984000", "174704.987000", "174704.990000", "174704.992000", "174704.995000", "174704.997000", "174705.001000", "174744.936000", "174744.938000", "174744.941000", "174744.943000", "174744.946000", "174744.948000", "174744.951000", "174744.953000", "174744.956000", "174744.958000", "174744.961000", "174744.963000", "174744.966000", "174744.968000", "174744.971000", "174744.973000", "174744.975000", "174744.978000", "174744.980000", "174744.983000", "174744.985000", "174744.988000", "174744.990000", "174744.993000", "174744.995000", "174744.998000", "174745.001000", "174824.960000", "174824.963000", "174824.965000", "174824.968000", "174824.971000", "174824.973000", "174824.975000", "174824.978000", "174824.980000", "174824.983000", "174824.985000", "174824.988000", "174824.990000", "174824.993000", "174824.995000", "174824.998000", "174825.001000", "174825.004000", "174825.006000", "174825.009000", "174825.011000", "174825.013000", "174825.016000", "174825.018000", "174825.021000", "174825.023000", "174825.026000", "174904.930000", "174904.932000", "174904.935000", "174904.937000", "174904.940000", "174904.942000", "174904.945000", "174904.947000", "174904.950000", "174904.952000", "174904.955000", "174904.957000", "174904.960000", "174904.962000", "174904.964000", "174904.967000", "174904.969000", "174904.972000", "174904.974000", "174904.977000", "174904.979000", "174904.982000", "174904.984000", "174904.987000", "174904.989000", "174904.992000", "174904.994000", "174912.187000", "174912.190000", "174912.192000", "174912.195000", "174912.197000"],
