{
  "AcquisitionMatrixPE": 104,
  "AcquisitionNumber": 1,
  "AcquisitionTime": "17:50:41.277500",
  "BandwidthPerPixelPhaseEncode": 17.17,
  "BaseResolution": 104,
  "BodyPartExamined": "BRAIN",
  "CoilCombinationMethod": "Sum of Squares",
  "ConsistencyInfo": "N4_VE11C_LATEST_20160120",
  "ConversionSoftware": "dcm2niix",
  "ConversionSoftwareVersion": "v1.0.20211006",
  "DerivedVendorReportedEchoSpacing": 0.000560011,
  "DeviceSerialNumber": "167006",
  "DwellTime": 2.1e-06,
  "EchoTime": 0.037,
  "EchoTime1": 0.037,
  "EchoTime2": 0.001,
  "EchoTrainLength": 104,
  "EffectiveEchoSpacing": 0.000560011,
  "FlipAngle": 52,
  "HeudiconvVersion": "0.10.0",
  "ImageComments": "Unaliased MB4/PE3/LB",
  "ImageOrientationPatientDICOM": [0.995549, 0.0849325, 0.0408477, -0.0619369, 0.9163, -0.395675],
  "ImageOrientationText": "Tra>Cor(-23.1)>Sag(4.1)",
  "ImageType": [
    "ORIGINAL",
    "PRIMARY",
    "P",
    "MB",
    "ND",
    "MOSAIC",
    "PHASE"
],
  "ImagingFrequency": 123.259,
  "InPlanePhaseEncodingDirectionDICOM": "COL",
  "InstitutionAddress": "Chemin Queen-Mary 4565,Montreal,District,CA,H3W 1W5",
  "InstitutionName": "IUGM",
  "InstitutionalDepartmentName": "Department",
  "MRAcquisitionType": "2D",
  "MagneticFieldStrength": 3,
  "Manufacturer": "Siemens",
  "ManufacturersModelName": "Prisma_fit",
  "MatrixCoilMode": "SENSE",
  "Modality": "MR",
  "MultibandAccelerationFactor": 4,
  "PartialFourier": 1,
  "PatientPosition": "HFS",
  "PercentPhaseFOV": 100,
  "PercentSampling": 100,
  "PhaseEncodingDirection": "j",
  "PhaseEncodingSteps": 104,
  "PhaseResolution": 1,
  "PixelBandwidth": 2290,
  "ProcedureStepDescription": "games^mario",
  "ProtocolName": "func_task-mario_run-04",
  "PulseSequenceDetails": "%CustomerSeq%\\cmrr_mbep2d_bold",
  "ReceiveCoilActiveElements": "HC1-7;NC1,2",
  "ReceiveCoilName": "HeadNeck_64",
  "ReconMatrixPE": 104,
  "RepetitionTime": 1.49,
  "SAR": 0.0618058,
  "ScanOptions": "FS",
  "ScanningSequence": "EP",
  "SequenceName": "epfid2d1_104",
  "SequenceVariant": "SK\\SS",
  "SeriesDescription": "func_task-mario_run-04",
  "SeriesNumber": 20,
  "ShimSetting": [635, -7187, -8822, 591, 89, -24, -62, -5],
  "SliceThickness": 2,
  "SliceTiming": [0, 0.7825, 0.0975, 0.8825, 0.195, 0.98, 0.2925, 1.0775, 0.3925, 1.175, 0.49, 1.2725, 0.5875, 1.3725, 0.685, 0, 0.7825, 0.0975, 0.8825, 0.195, 0.98, 0.2925, 1.0775, 0.3925, 1.175, 0.49, 1.2725, 0.5875, 1.3725, 0.685, 0, 0.7825, 0.0975, 0.8825, 0.195, 0.98, 0.2925, 1.0775, 0.3925, 1.175, 0.49, 1.2725, 0.5875, 1.3725, 0.685, 0, 0.7825, 0.0975, 0.8825, 0.195, 0.98, 0.2925, 1.0775, 0.3925, 1.175, 0.49, 1.2725, 0.5875, 1.3725, 0.685],
  "SoftwareVersions": "syngo MR E11",
  "SpacingBetweenSlices": 2,
  "StationName": "MRC35049",
  "TaskName": "mario",
  "TotalReadoutTime": 0.0576811,
  "TxRefAmp": 303.852,
  "WipMemBlock": "dd668577-a2a8-4fe3-b4f0-3f3d455aec07||Sequence: R016 ve11c/master r/e634e98; Dec 19 2017 11:00:25 by eja",
  "dcmmeta_affine": [
    [-1.991098165512085, -0.12387380748987198, 0.14206887781620026, 108.3235855102539],
    [-0.16986507177352905, 1.8325992822647095, -0.7827680110931396, -48.03376388549805],
    [0.08169542998075485, 0.7913501858711243, 1.8349634408950806, -65.2478256225586],
    [0.0, 0.0, 0.0, 1.0]
],
  "dcmmeta_reorient_transform": [
    [0.0, -1.0, 0.0, 103.0],
    [1.0, 0.0, 0.0, 0.0],
    [0.0, 0.0, 1.0, 0.0],
    [0.0, 0.0, 0.0, 1.0]
],
  "dcmmeta_shape": [104, 104, 60, 471],
  "dcmmeta_slice_dim": 2,
  "dcmmeta_version": 0.6,
  "global": {
    "const": {
      "AcquisitionMatrix": [104, 0, 0, 104],
      "AngioFlag": "N",
      "BitsAllocated": 16,
      "BitsStored": 16,
      "BodyPartExamined": "BRAIN",
      "Columns": 832,
      "EchoNumbers": 1,
      "EchoTime": 37.0,
      "EchoTrainLength": 104,
      "FlipAngle": 52.0,
      "HighBit": 15,
      "ImageOrientationPatient": [0.99554905887121, 0.08493253482423, 0.04084771608028, -0.0619369041187, 0.91629963954316, -0.3956751072298],
      "ImagePositionPatient": [-775.23423191207, -869.62098663959, 274.57558705294],
      "ImageType": [
        "ORIGINAL",
        "PRIMARY",
        "P",
        "MB",
        "ND",
        "MOSAIC"
],
      "ImagedNucleus": "1H",
      "ImagingFrequency": 123.258887,
      "InPlanePhaseEncodingDirection": "COL",
      "LargestImagePixelValue": 4095,
      "MRAcquisitionType": "2D",
      "MagneticFieldStrength": 3.0,
      "Manufacturer": "SIEMENS",
      "ManufacturerModelName": "Prisma_fit",
      "Modality": "MR",
      "NumberOfAverages": 1.0,
      "NumberOfPhaseEncodingSteps": 104,
      "PercentPhaseFieldOfView": 100.0,
      "PercentSampling": 100.0,
      "PerformedProcedureStepStartTime": "165225.117000",
      "PhotometricInterpretation": "MONOCHROME2",
      "PixelBandwidth": 2290.0,
      "PixelRepresentation": 0,
      "PixelSpacing": [2.0, 2.0],
      "ProtocolName": "func_task-mario_run-04",
      "RepetitionTime": 1490.0,
      "RescaleIntercept": -4096.0,
      "RescaleSlope": 2.0,
      "RescaleType": "US",
      "Rows": 832,
      "SAR": 0.06180577625373,
      "SamplesPerPixel": 1,
      "ScanOptions": "FS",
      "ScanningSequence": "EP",
      "SequenceName": "epfid2d1_104",
      "SequenceVariant": [
        "SK",
        "SS"
],
      "SeriesDescription": "func_task-mario_run-04",
      "SeriesNumber": 20,
      "SeriesTime": "175153.707000",
      "SliceLocation": -33.369335414352,
      "SliceThickness": 2.0,
      "SmallestImagePixelValue": 0,
      "SoftwareVersions": "syngo MR E11",
      "SpacingBetweenSlices": 2.0000000162907,
      "SpecificCharacterSet": "ISO_IR 100",
      "StudyID": "1",
      "StudyTime": "165225.004000",
      "TransmitCoilName": "Body",
      "VariableFlipAngleFlag": "N",
      "WindowCenterWidthExplanation": "Algo1",
      "dBdt": 0.0},
    "slices": {}
  },
  "time": {
    "samples": {
      "AcquisitionNumber": [1, 2, 3, 4, 5, 6, 7, 8, 9, 10, 11, 12, 13, 14, 15, 16, 17, 18, 19, 20, 21, 22, 23, 24, 25, 26, 27, 28, 29, 30, 31, 32, 33, 34, 35, 36, 37, 38, 39, 40, 41, 42, 43, 44, 45, 46, 47, 48, 49, 50, 51, 52, 53, 54, 55, 56, 57, 58, 59, 60, 61, 62, 63, 64, 65, 66, 67, 68, 69, 70, 71, 72, 73, 74, 75, 76, 77, 78, 79, 80, 81, 82, 83, 84, 85, 86, 87, 88, 89, 90, 91, 92, 93, 94, 95, 96, 97, 98, 99, 100, 101, 102, 103, 104, 105, 106, 107, 108, 109, 110, 111, 112, 113, 114, 115, 116, 117, 118, 119, 120, 121, 122, 123, 124, 125, 126, 127, 128, 129, 130, 131, 132, 133, 134, 135, 136, 137, 138, 139, 140, 141, 142, 143, 144, 145, 146, 147, 148, 149, 150, 151, 152, 153, 154, 155, 156, 157, 158, 159, 160, 161, 162, 163, 164, 165, 166, 167, 168, 169, 170, 171, 172, 173, 174, 175, 176, 177, 178, 179, 180, 181, 182, 183, 184, 185, 186, 187, 188, 189, 190, 191, 192, 193, 194, 195, 196, 197, 198, 199, 200, 201, 202, 203, 204, 205, 206, 207, 208, 209, 210, 211, 212, 213, 214, 215, 216, 217, 218, 219, 220, 221, 222, 223, 224, 225, 226, 227, 228, 229, 230, 231, 232, 233, 234, 235, 236, 237, 238, 239, 240, 241, 242, 243, 244, 245, 246, 247, 248, 249, 250, 251, 252, 253, 254, 255, 256, 257, 258, 259, 260, 261, 262, 263, 264, 265, 266, 267, 268, 269, 270, 271, 272, 273, 274, 275, 276, 277, 278, 279, 280, 281, 282, 283, 284, 285, 286, 287, 288, 289, 290, 291, 292, 293, 294, 295, 296, 297, 298, 299, 300, 301, 302, 303, 304, 305, 306, 307, 308, 309, 310, 311, 312, 313, 314, 315, 316, 317, 318, 319, 320, 321, 322, 323, 324, 325, 326, 327, 328, 329, 330, 331, 332, 333, 334, 335, 336, 337, 338, 339, 340, 341, 342, 343, 344, 345, 346, 347, 348, 349, 350, 351, 352, 353, 354, 355, 356, 357, 358, 359, 360, 361, 362, 363, 364, 365, 366, 367, 368, 369, 370, 371, 372, 373, 374, 375, 376, 377, 378, 379, 380, 381, 382, 383, 384, 385, 386, 387, 388, 389, 390, 391, 392, 393, 394, 395, 396, 397, 398, 399, 400, 401, 402, 403, 404, 405, 406, 407, 408, 409, 410, 411, 412, 413, 414, 415, 416, 417, 418, 419, 420, 421, 422, 423, 424, 425, 426, 427, 428, 429, 430, 431, 432, 433, 434, 435, 436, 437, 438, 439, 440, 441, 442, 443, 444, 445, 446, 447, 448, 449, 450, 451, 452, 453, 454, 455, 456, 457, 458, 459, 460, 461, 462, 463, 464, 465, 466, 467, 468, 469, 470, 471],
      "AcquisitionTime": ["175041.277500", "175042.767500", "175044.257500", "175045.747500", "175047.237500", "175048.727500", "175050.217500", "175051.707500", "175053.197500", "175054.687500", "175056.177500", "175057.667500", "175059.157500", "175100.647500", "175102.137500", "175103.627500", "175105.117500", "175106.607500", "175108.097500", "175109.587500", "175111.077500", "175112.567500", "175114.057500", "175115.547500", "175117.037500", "175118.527500", "175120.017500", "175121.507500", "175122.997500", "175124.487500", "175125.977500", "175127.467500", "175128.957500", "175130.447500", "175131.937500", "175133.427500", "175134.917500", "175136.407500", "175137.897500", "175139.387500", "175140.877500", "175142.367500", "175143.857500", "175145.347500", "175146.837500", "175148.327500", "175149.817500", "175151.307500", "175152.797500", "175154.287500", "175155.777500", "175157.267500", "175158.757500", "175200.247500", "175201.737500", "175203.227500", "175204.717500", "175206.207500", "175207.697500", "175209.187500", "175210.677500", "175212.167500", "175213.657500", "175215.147500", "175216.637500", "175218.127500", "175219.617500", "175221.107500", "175222.597500", "175224.087500", "175225.577500", "175227.067500", "175228.557500", "175230.047500", "175231.537500", "175233.027500", "175234.517500", "175236.007500", "175237.497500", "175238.987500", "175240.477500", "175241.967500", "175243.457500", "175244.947500", "175246.437500", "175247.927500", "175249.417500", "175250.907500", "175252.397500", "175253.887500", "175255.377500", "175256.867500", "175258.357500", "175259.847500", "175301.337500", "175302.827500", "175304.317500", "175305.807500", "175307.297500", "175308.787500", "175310.277500", "175311.767500", "175313.257500", "175314.747500", "175316.237500", "175317.727500", "175319.217500", "175320.707500", "175322.197500", "175323.687500", "175325.177500", "175326.667500", "175328.157500", "175329.647500", "175331.137500", "175332.627500", "175334.117500", "175335.607500", "175337.097500", "175338.587500", "175340.077500", "175341.567500", "175343.057500", "175344.547500", "175346.037500", "175347.527500", "175349.017500", "175350.507500", "175351.997500", "175353.487500", "175354.977500", "175356.467500", "175357.957500", "175359.447500", "175400.937500", "175402.427500", "175403.917500", "175405.407500", "175406.897500", "175408.387500", "175409.877500", "175411.367500", "175412.857500", "175414.347500", "175415.837500", "175417.327500", "175418.817500", "175420.307500", "175421.797500", "175423.287500", "175424.777500", "175426.267500", "175427.757500", "175429.247500", "175430.737500", "175432.227500", "175433.717500", "175435.207500", "175436.697500", "175438.187500", "175439.677500", "175441.167500", "175442.657500", "175444.147500", "175445.637500", "175447.127500", "175448.617500", "175450.107500", "175451.597500", "175453.087500", "175454.577500", "175456.067500", "175457.557500", "175459.047500", "175500.537500", "175502.027500", "175503.517500", "175505.007500", "175506.497500", "175507.987500", "175509.477500", "175510.967500", "175512.457500", "175513.947500", "175515.437500", "175516.927500", "175518.417500", "175519.907500", "175521.397500", "175522.887500", "175524.377500", "175525.867500", "175527.357500", "175528.847500", "175530.337500", "175531.827500", "175533.317500", "175534.807500", "175536.297500", "175537.787500", "175539.277500", "175540.767500", "175542.257500", "175543.747500", "175545.237500", "175546.727500", "175548.217500", "175549.707500", "175551.197500", "175552.687500", "175554.177500", "175555.667500", "175557.157500", "175558.647500", "175600.137500", "175601.627500", "175603.117500", "175604.607500", "175606.097500", "175607.587500", "175609.077500", "175610.567500", "175612.057500", "175613.547500", "175615.037500", "175616.527500", "175618.017500", "175619.507500", "175620.997500", "175622.487500", "175623.977500", "175625.467500", "175626.957500", "175628.447500", "175629.937500", "175631.427500", "175632.917500", "175634.407500", "175635.897500", "175637.387500", "175638.877500", "175640.367500", "175641.857500", "175643.347500", "175644.837500", "175646.327500", "175647.817500", "175649.307500", "175650.797500", "175652.287500", "175653.777500", "175655.267500", "175656.757500", "175658.247500", "175659.737500", "175701.227500", "175702.717500", "175704.207500", "175705.697500", "175707.187500", "175708.677500", "175710.167500", "175711.657500", "175713.147500", "175714.637500", "175716.127500", "175717.617500", "175719.107500", "175720.597500", "175722.087500", "175723.577500", "175725.067500", "175726.557500", "175728.047500", "175729.537500", "175731.027500", "175732.517500", "175734.007500", "175735.497500", "175736.987500", "175738.477500", "175739.967500", "175741.457500", "175742.947500", "175744.437500", "175745.927500", "175747.417500", "175748.907500", "175750.397500", "175751.887500", "175753.377500", "175754.867500", "175756.357500", "175757.847500", "175759.337500", "175800.827500", "175802.317500", "175803.807500", "175805.297500", "175806.787500", "175808.277500", "175809.767500", "175811.257500", "175812.747500", "175814.237500", "175815.727500", "175817.217500", "175818.707500", "175820.197500", "175821.687500", "175823.177500", "175824.667500", "175826.157500", "175827.647500", "175829.137500", "175830.627500", "175832.117500", "175833.607500", "175835.097500", "175836.587500", "175838.077500", "175839.567500", "175841.057500", "175842.547500", "175844.037500", "175845.527500", "175847.017500", "175848.507500", "175849.997500", "175851.487500", "175852.977500", "175854.467500", "175855.957500", "175857.447500", "175858.937500", "175900.427500", "175901.917500", "175903.407500", "175904.897500", "175906.387500", "175907.877500", "175909.367500", "175910.857500", "175912.347500", "175913.837500", "175915.327500", "175916.817500", "175918.307500", "175919.797500", "175921.287500", "175922.777500", "175924.267500", "175925.757500", "175927.247500", "175928.737500", "175930.227500", "175931.717500", "175933.207500", "175934.697500", "175936.187500", "175937.677500", "175939.167500", "175940.657500", "175942.147500", "175943.637500", "175945.127500", "175946.617500", "175948.107500", "175949.597500", "175951.087500", "175952.577500", "175954.067500", "175955.557500", "175957.047500", "175958.537500", "180000.027500", "180001.517500", "180003.007500", "180004.497500", "180005.987500", "180007.477500", "180008.967500", "180010.457500", "180011.947500", "180013.437500", "180014.927500", "180016.417500", "180017.907500", "180019.397500", "180020.887500", "180022.377500", "180023.867500", "180025.357500", "180026.847500", "180028.337500", "180029.827500", "180031.317500", "180032.807500", "180034.297500", "180035.787500", "180037.277500", "180038.767500", "180040.257500", "180041.747500", "180043.237500", "180044.727500", "180046.217500", "180047.707500", "180049.197500", "180050.687500", "180052.177500", "180053.667500", "180055.157500", "180056.647500", "180058.137500", "180059.627500", "180101.117500", "180102.607500", "180104.097500", "180105.587500", "180107.077500", "180108.567500", "180110.057500", "180111.547500", "180113.037500", "180114.527500", "180116.017500", "180117.507500", "180118.997500", "180120.487500", "180121.977500", "180123.467500", "180124.957500", "180126.447500", "180127.937500", "180129.427500", "180130.917500", "180132.407500", "180133.897500", "180135.387500", "180136.877500", "180138.367500", "180139.857500", "180141.347500", "180142.837500", "180144.327500", "180145.817500", "180147.307500", "180148.797500", "180150.287500", "180151.777500", "180153.267500", "180154.757500", "180156.247500", "180157.737500", "180159.227500", "180200.717500", "180202.207500", "180203.697500", "180205.187500", "180206.677500", "180208.167500", "180209.657500", "180211.147500", "180212.637500", "180214.127500", "180215.617500", "180217.107500", "180218.597500", "180220.087500", "180221.577500"],
      "ContentTime": ["175153.709000", "175153.711000", "175153.714000", "175153.716000", "175153.719000", "175153.721000", "175153.723000", "175153.726000", "175153.728000", "175153.731000", "175153.733000", "175153.736000", "175153.738000", "175153.741000", "175153.747000", "175153.749000", "175213.683000", "175213.690000", "175213.692000", "175213.694000", "175213.697000", "175213.699000", "175213.702000", "175213.704000", "175213.707000", "175213.709000", "175213.712000", "175213.714000", "175213.716000", "175213.719000", "175213.721000", "175213.724000", "175213.726000", "175213.729000", "175213.731000", "175213.734000", "175233.683000", "175233.686000", "175233.688000", "175233.697000", "175233.699000", "175233.701000", "175233.704000", "175233.706000", "175233.709000", "175233.711000", "175233.714000", "175233.716000", "175233.719000", "175233.721000", "175233.723000", "175233.726000", "175233.728000", "175233.731000", "175233.733000", "175233.736000", "175253.693000", "175253.696000", "175253.699000", "175253.701000", "175253.704000", "175253.706000", "175253.708000", "175253.711000", "175253.713000", "175253.716000", "175253.718000", "175253.721000", "175253.723000", "175253.726000", "175253.728000", "175253.731000", "175253.733000", "175253.736000", "175253.738000", "175253.741000", "175314.052000", "175314.055000", "175314.057000", "175314.060000", "175314.062000", "175314.065000", "175314.067000", "175314.070000", "175314.072000", "175314.075000", "175314.077000", "175314.080000", "175314.082000", "175314.085000", "175314.087000", "175314.090000", "175314.092000", "175314.095000", "175314.097000", "175314.099000", "175353.739000", "175353.742000", "175353.745000", "175353.747000", "175353.749000", "175353.752000", "175353.754000", "175353.757000", "175353.759000", "175353.762000", "175353.764000", "175353.767000", "175353.769000", "175353.772000", "175353.774000", "175353.777000", "175353.779000", "175353.782000", "175353.784000", "175353.787000", "175353.789000", "175353.792000", "175353.794000", "175353.797000", "175353.815000", "175353.818000", "175353.820000", "175353.829000", "175353.832000", "175353.834000", "175353.836000", "175353.839000", "175433.718000", "175433.721000", "175433.723000", "175433.726000", "175433.728000", "175433.731000", "175433.733000", "175433.736000", "175433.738000", "175433.741000", "175433.743000", "175433.745000", "175433.748000", "175433.750000", "175433.753000", "175433.755000", "175433.758000", "175433.760000", "175433.763000", "175433.765000", "175433.768000", "175433.770000", "175433.773000", "175433.775000", "175433.777000", "175433.780000", "175433.782000", "175513.732000", "175513.735000", "175513.737000", "175513.740000", "175513.742000", "175513.745000", "175513.747000", "175513.750000", "175513.752000", "175513.755000", "175513.757000", "175513.760000", "175513.762000", "175513.765000", "175513.767000", "175513.770000", "175513.772000", "175513.775000", "175513.777000", "175513.780000", "175513.782000", "175513.784000", "175513.787000", "175513.789000", "175513.792000", "175513.794000", "175513.797000", "175553.723000", "175553.726000", "175553.728000", "175553.730000", "175553.733000", "175553.735000", "175553.738000", "175553.740000", "175553.743000", "175553.745000", "175553.748000", "175553.750000", "175553.753000", "175553.755000", "175553.758000", "175553.760000", "175553.763000", "175553.765000", "175553.768000", "175553.774000", "175553.777000", "175553.779000", "175553.782000", "175553.784000", "175553.787000", "175553.789000", "175633.719000", "175633.722000", "175633.724000", "175633.727000", "175633.729000", "175633.732000", "175633.734000", "175633.737000", "175633.739000", "175633.742000", "175633.744000", "175633.747000", "175633.749000", "175633.752000", "175633.754000", "175633.756000", "175633.759000", "175633.761000", "175633.764000", "175633.766000", "175633.769000", "175633.771000", "175633.774000", "175633.777000", "175633.779000", "175633.782000", "175633.784000", "175713.716000", "175713.719000", "175713.721000", "175713.724000", "175713.742000", "175713.745000", "175713.747000", "175713.750000", "175713.752000", "175713.754000", "175713.757000", "175713.760000", "175713.762000", "175713.765000", "175713.767000", "175713.769000", "175713.772000", "175713.774000", "175713.777000", "175713.780000", "175713.782000", "175713.784000", "175713.787000", "175713.789000", "175713.792000", "175713.794000", "175713.797000", "175753.718000", "175753.721000", "175753.724000", "175753.726000", "175753.729000", "175753.731000", "175753.733000", "175753.736000", "175753.738000", "175753.741000", "175753.744000", "175753.746000", "175753.749000", "175753.751000", "175753.754000", "175753.756000", "175753.759000", "175753.761000", "175753.764000", "175753.766000", "175753.769000", "175753.771000", "175753.774000", "175753.776000", "175753.779000", "175753.781000", "175753.784000", "175833.726000", "175833.729000", "175833.731000", "175833.734000", "175833.736000", "175833.738000", "175833.741000", "175833.743000", "175833.746000", "175833.748000", "175833.751000", "175833.753000", "175833.756000", "175833.758000", "175833.761000", "175833.763000", "175833.766000", "175833.768000", "175833.771000", "175833.773000", "175833.776000", "175833.778000", "175833.781000", "175833.783000", "175833.786000", "175833.788000", "175833.791000", "175913.711000", "175913.713000", "175913.716000", "175913.718000", "175913.721000", "175913.723000", "175913.726000", "175913.728000", "175913.731000", "175913.733000", "175913.736000", "175913.738000", "175913.741000", "175913.743000", "175913.746000", "175913.748000", "175913.751000", "175913.753000", "175913.756000", "175913.758000", "175913.761000", "175913.763000", "175913.765000", "175913.768000", "175913.771000", "175913.773000", "175913.776000", "175953.726000", "175953.729000", "175953.732000", "175953.734000", "175953.737000", "175953.739000", "175953.742000", "175953.746000", "175953.749000", "175953.751000", "175953.754000", "175953.756000", "175953.759000", "175953.761000", "175953.764000", "175953.766000", "175953.769000", "175953.771000", "175953.774000", "175953.777000", "175953.779000", "175953.782000", "175953.784000", "175953.787000", "175953.789000", "175953.792000", "175953.794000", "180013.655000", "180013.658000", "180013.661000", "180013.663000", "180013.666000", "180013.668000", "180013.670000", "180013.673000", "180013.675000", "180013.678000", "180013.680000", "180013.683000", "180013.685000", "180053.733000", "180053.736000", "180053.738000", "180053.740000", "180053.743000", "180053.746000", "180053.748000", "180053.751000", "180053.754000", "180053.756000", "180053.759000", "180053.761000", "180053.764000", "180053.766000", "180053.769000", "180053.771000", "180053.774000", "180053.776000", "180053.779000", "180053.781000", "180053.784000", "180053.786000", "180053.789000", "180053.791000", "180053.794000", "180053.796000", "180053.799000", "180133.713000", "180133.716000", "180133.718000", "180133.721000", "180133.723000", "180133.726000", "180133.728000", "180133.731000", "180133.733000", "180133.740000", "180133.743000", "180133.745000", "180133.748000", "180133.750000", "180133.753000", "180133.755000", "180133.758000", "180133.760000", "180133.763000", "180133.765000", "180133.768000", "180133.771000", "180133.774000", "180133.776000", "180133.779000", "180133.781000", "180133.784000", "180213.733000", "180213.735000", "180213.738000", "180213.740000", "180213.743000", "180213.745000", "180213.748000", "180213.750000", "180213.753000", "180213.755000", "180213.758000", "180213.760000", "180213.763000", "180213.765000", "180213.768000", "180213.770000", "180213.773000", "180213.775000", "180213.778000", "180213.780000", "180213.783000", "180213.785000", "180213.788000", "180213.790000", "180213.793000", "180213.795000", "180213.797000", "180225.010000", "180225.012000", "180225.015000", "180225.017000", "180225.020000", "180225.022000", "180225.025000"],
